-1718750 -1718750 0
-1750000 -1750000 0
-1781250 -1781250 0
-1906250 -1906250 0
-1812500 -1812500 0
-1875000 -1875000 0
-1750000 -1750000 0
-1812500 -1812500 0
-1875000 -1875000 0
-1968750 -1968750 0
-2000000 -2000000 0
-2093750 -2093750 0
-2250000 -2250000 0
-2406250 -2406250 0
-2406250 -2406250 0
-2531250 -2531250 0
-2843750 -2843750 0
-3031250 -3031250 0
-3031250 -3031250 0
-2656250 -2656250 0
-2062500 -2062500 0
-1375000 -1375000 0
-437500 -437500 0
750000 750000 0
2343750 2343750 0
3875000 3875000 0
4875000 4875000 0
5250000 5250000 0
4781250 4781250 0
3250000 3250000 0
1062500 1062500 0
-1031250 -1031250 0
-2281250 -2281250 0
-2718750 -2718750 0
-2656250 -2656250 0
-2312500 -2312500 0
-2062500 -2062500 0
-2031250 -2031250 0
-2093750 -2093750 0
-2156250 -2156250 0
-2062500 -2062500 0
-2031250 -2031250 0
-1968750 -1968750 0
-1937500 -1937500 0
-2000000 -2000000 0
-2093750 -2093750 0
-2125000 -2125000 0
-2031250 -2031250 0
-2156250 -2156250 0
-2093750 -2093750 0
-2062500 -2062500 0
-2093750 -2093750 0
-2062500 -2062500 0
-2031250 -2031250 0
-2062500 -2062500 0
-2062500 -2062500 0
-2156250 -2156250 0
-2218750 -2218750 0
-2093750 -2093750 0
-2031250 -2031250 0
-1906250 -1906250 0
-2000000 -2000000 0
-2000000 -2000000 0
-2062500 -2062500 0
-2125000 -2125000 0
-2093750 -2093750 0
-2125000 -2125000 0
-2156250 -2156250 0
-2218750 -2218750 0
-2218750 -2218750 0
-2125000 -2125000 0
-2062500 -2062500 0
-2062500 -2062500 0
-2062500 -2062500 0
-2125000 -2125000 0
-2187500 -2187500 0
-2031250 -2031250 0
-2031250 -2031250 0
-2062500 -2062500 0
-2062500 -2062500 0
-2093750 -2093750 0
-2093750 -2093750 0
-2125000 -2125000 0
-2062500 -2062500 0
-2125000 -2125000 0
-2187500 -2187500 0
-2218750 -2218750 0
-2187500 -2187500 0
-2156250 -2156250 0
-2062500 -2062500 0
-2000000 -2000000 0
-2093750 -2093750 0
-2062500 -2062500 0
-2156250 -2156250 0
-2062500 -2062500 0
-2093750 -2093750 0
-2093750 -2093750 0
-2156250 -2156250 0
-2156250 -2156250 0
-2218750 -2218750 0
-2125000 -2125000 0
-2125000 -2125000 0
-2093750 -2093750 0
-2062500 -2062500 0
-2187500 -2187500 0
-2187500 -2187500 0
-2156250 -2156250 0
-2093750 -2093750 0
-2093750 -2093750 0
-2093750 -2093750 0
-2187500 -2187500 0
-2218750 -2218750 0
-2218750 -2218750 0
-2156250 -2156250 0
-2156250 -2156250 0
-2093750 -2093750 0
-2187500 -2187500 0
-2250000 -2250000 0
-2250000 -2250000 0
-2250000 -2250000 0
-2281250 -2281250 0
-2250000 -2250000 0
-2312500 -2312500 0
-2406250 -2406250 0
-2312500 -2312500 0
-2250000 -2250000 0
-2218750 -2218750 0
-2250000 -2250000 0
-2343750 -2343750 0
-2343750 -2343750 0
-2281250 -2281250 0
-2281250 -2281250 0
-2250000 -2250000 0
-2250000 -2250000 0
-2281250 -2281250 0
-2312500 -2312500 0
-2218750 -2218750 0
-2062500 -2062500 0
-2031250 -2031250 0
-2031250 -2031250 0
-2093750 -2093750 0
-2125000 -2125000 0
-1968750 -1968750 0
-1875000 -1875000 0
-1875000 -1875000 0
-1812500 -1812500 0
-1843750 -1843750 0
-1812500 -1812500 0
-1781250 -1781250 0
-1718750 -1718750 0
-1593750 -1593750 0
-1562500 -1562500 0
-1562500 -1562500 0
-1656250 -1656250 0
-1593750 -1593750 0
-1531250 -1531250 0
-1437500 -1437500 0
-1531250 -1531250 0
-1531250 -1531250 0
-1593750 -1593750 0
-1593750 -1593750 0
-1500000 -1500000 0
-1562500 -1562500 0
-1593750 -1593750 0
-1531250 -1531250 0
-1593750 -1593750 0
-1562500 -1562500 0
-1562500 -1562500 0
-1656250 -1656250 0
-1625000 -1625000 0
-1625000 -1625000 0
-1656250 -1656250 0
-1687500 -1687500 0
-1656250 -1656250 0
-1625000 -1625000 0
-1718750 -1718750 0
-1750000 -1750000 0
-1812500 -1812500 0
-1718750 -1718750 0
-1687500 -1687500 0
-1625000 -1625000 0
-1750000 -1750000 0
-1750000 -1750000 0
-1781250 -1781250 0
-1718750 -1718750 0
-1718750 -1718750 0
-1656250 -1656250 0
-1687500 -1687500 0
-1781250 -1781250 0
-1812500 -1812500 0
-1750000 -1750000 0
-1718750 -1718750 0
-1781250 -1781250 0
-1750000 -1750000 0
-1875000 -1875000 0
-1875000 -1875000 0
-1906250 -1906250 0
-1843750 -1843750 0
-1875000 -1875000 0
-1937500 -1937500 0
-1937500 -1937500 0
-1906250 -1906250 0
-1843750 -1843750 0
-1781250 -1781250 0
-1781250 -1781250 0
-1812500 -1812500 0
-1843750 -1843750 0
-1937500 -1937500 0
-1812500 -1812500 0
-1843750 -1843750 0
-1875000 -1875000 0
-1906250 -1906250 0
-1937500 -1937500 0
-2031250 -2031250 0
-1937500 -1937500 0
-1875000 -1875000 0
-1812500 -1812500 0
-1937500 -1937500 0
-2031250 -2031250 0
-2062500 -2062500 0
-1968750 -1968750 0
-1875000 -1875000 0
-1906250 -1906250 0
-1937500 -1937500 0
-2000000 -2000000 0
-2062500 -2062500 0
-2031250 -2031250 0
-1968750 -1968750 0
-1937500 -1937500 0
-1906250 -1906250 0
-1906250 -1906250 0
-1937500 -1937500 0
-1875000 -1875000 0
-1906250 -1906250 0
-1812500 -1812500 0
-1875000 -1875000 0
-1875000 -1875000 0
-1906250 -1906250 0
-1906250 -1906250 0
-1812500 -1812500 0
-1750000 -1750000 0
-1843750 -1843750 0
-1906250 -1906250 0
-1968750 -1968750 0
-1906250 -1906250 0
-1843750 -1843750 0
-1812500 -1812500 0
-1750000 -1750000 0
-1687500 -1687500 0
-1718750 -1718750 0
-1718750 -1718750 0
-1687500 -1687500 0
-1562500 -1562500 0
-1562500 -1562500 0
-1593750 -1593750 0
-1406250 -1406250 0
-1375000 -1375000 0
-1281250 -1281250 0
-1250000 -1250000 0
-1281250 -1281250 0
-1343750 -1343750 0
-1437500 -1437500 0
-1375000 -1375000 0
-1406250 -1406250 0
-1406250 -1406250 0
-1406250 -1406250 0
-1437500 -1437500 0
-1468750 -1468750 0
-1500000 -1500000 0
-1468750 -1468750 0
-1375000 -1375000 0
-1312500 -1312500 0
-1281250 -1281250 0
-1531250 -1531250 0
-1781250 -1781250 0
-1781250 -1781250 0
-1875000 -1875000 0
-1937500 -1937500 0
-2062500 -2062500 0
-2062500 -2062500 0
-2062500 -2062500 0
-2062500 -2062500 0
-2062500 -2062500 0
-2062500 -2062500 0
-2062500 -2062500 0
-2062500 -2062500 0
-2062500 -2062500 0
-2062500 -2062500 0
-2062500 -2062500 0
-2062500 -2062500 0
-2062500 -2062500 0
-2062500 -2062500 0
-2062500 -2062500 0
-2062500 -2062500 0
-2062500 -2062500 0
-2062500 -2062500 0
-2062500 -2062500 0
-2062500 -2062500 0
-2062500 -2062500 0
-2062500 -2062500 0
-2062500 -2062500 0
-2062500 -2062500 0
-2062500 -2062500 0
-2062500 -2062500 0
-2062500 -2062500 0
-2062500 -2062500 0
-2062500 -2062500 0
-2062500 -2062500 0
-2062500 -2062500 0
-2062500 -2062500 0
-2062500 -2062500 0
-2062500 -2062500 0
-2062500 -2062500 0
-2062500 -2062500 0
-2062500 -2062500 0
-2062500 -2062500 0
-2062500 -2062500 0
-2062500 -2062500 0
-2062500 -2062500 0
-2062500 -2062500 0
-2062500 -2062500 0
-2062500 -2062500 0
-2062500 -2062500 0
-2062500 -2062500 0
-2062500 -2062500 0
-2062500 -2062500 0
-2062500 -2062500 0
-2062500 -2062500 0
-2062500 -2062500 0
-2062500 -2062500 0
-2062500 -2062500 0
-2062500 -2062500 0
-2062500 -2062500 0
-2062500 -2062500 0
-2062500 -2062500 0
-2062500 -2062500 0
-2062500 -2062500 0
-2062500 -2062500 0
-2062500 -2062500 0
-2062500 -2062500 0
-2062500 -2062500 0
-2062500 -2062500 0
-2062500 -2062500 0
-2062500 -2062500 0
-2062500 -2062500 0
-2062500 -2062500 0
-2062500 -2062500 0
-2062500 -2062500 0
-2062500 -2062500 0
-2062500 -2062500 0
-2062500 -2062500 0
-2062500 -2062500 0
-2062500 -2062500 0
-2062500 -2062500 0
-2062500 -2062500 0
-2062500 -2062500 0
-2062500 -2062500 0
-2062500 -2062500 0
-2062500 -2062500 0
-2062500 -2062500 0
-2062500 -2062500 0
-2062500 -2062500 0
-2062500 -2062500 0
-2062500 -2062500 0
-2062500 -2062500 0
-2062500 -2062500 0
-2062500 -2062500 0
-2062500 -2062500 0
-2062500 -2062500 0
-2062500 -2062500 0
-2062500 -2062500 0
-2062500 -2062500 0
-2062500 -2062500 0
-2062500 -2062500 0
-2062500 -2062500 0
-2062500 -2062500 0
-2062500 -2062500 0
-2062500 -2062500 0
-2062500 -2062500 0
-2062500 -2062500 0
-2062500 -2062500 0
-2062500 -2062500 0
-2062500 -2062500 0
-2062500 -2062500 0
-2062500 -2062500 0
-2062500 -2062500 0
-2062500 -2062500 0
-2062500 -2062500 0
-2062500 -2062500 0
-2062500 -2062500 0
-2062500 -2062500 0
-2062500 -2062500 0
-2062500 -2062500 0
-2062500 -2062500 0
-2062500 -2062500 0
-2062500 -2062500 0
-2062500 -2062500 0
-2062500 -2062500 0
-2062500 -2062500 0
-2062500 -2062500 0
-2062500 -2062500 0
-2062500 -2062500 0
-2062500 -2062500 0
-2062500 -2062500 0
-2062500 -2062500 0
-2062500 -2062500 0
-2062500 -2062500 0
-2062500 -2062500 0
-2062500 -2062500 0
-2062500 -2062500 0
-2062500 -2062500 0
-2062500 -2062500 0
-2062500 -2062500 0
-2062500 -2062500 0
-2062500 -2062500 0
-2062500 -2062500 0
-2062500 -2062500 0
-2062500 -2062500 0
-2062500 -2062500 0
-2062500 -2062500 0
-2062500 -2062500 0
-2062500 -2062500 0
-2062500 -2062500 0
-2062500 -2062500 0
-2062500 -2062500 0
-2062500 -2062500 0
-2062500 -2062500 0
-2062500 -2062500 0
-2062500 -2062500 0
-2062500 -2062500 0
-2062500 -2062500 0
-2062500 -2062500 0
-2062500 -2062500 0
-2062500 -2062500 0
-2062500 -2062500 0
-2062500 -2062500 0
-2062500 -2062500 0
-2062500 -2062500 0
-2062500 -2062500 0
-2062500 -2062500 0
-2062500 -2062500 0
-2062500 -2062500 0
-2062500 -2062500 0
-2062500 -2062500 0
-2062500 -2062500 0
-2062500 -2062500 0
-2062500 -2062500 0
-2062500 -2062500 0
-2062500 -2062500 0
-2062500 -2062500 0
-2062500 -2062500 0
-2062500 -2062500 0
-2062500 -2062500 0
-2062500 -2062500 0
-2062500 -2062500 0
-2062500 -2062500 0
-2062500 -2062500 0
-2062500 -2062500 0
-2062500 -2062500 0
-2062500 -2062500 0
-2062500 -2062500 0
-2062500 -2062500 0
-2062500 -2062500 0
-2062500 -2062500 0
-2062500 -2062500 0
-2062500 -2062500 0
-2062500 -2062500 0
-2062500 -2062500 0
-2062500 -2062500 0
-2062500 -2062500 0
-2062500 -2062500 0
-2062500 -2062500 0
-2062500 -2062500 0
-2062500 -2062500 0
-2062500 -2062500 0
-2062500 -2062500 0
-2062500 -2062500 0
-2062500 -2062500 0
-2062500 -2062500 0
-2062500 -2062500 0
-2062500 -2062500 0
-2062500 -2062500 0
-2062500 -2062500 0
-2062500 -2062500 0
-2062500 -2062500 0
-2062500 -2062500 0
-2062500 -2062500 0
-2062500 -2062500 0
-2062500 -2062500 0
-2062500 -2062500 0
-2062500 -2062500 0
-2062500 -2062500 0
-2062500 -2062500 0
-2062500 -2062500 0
-2062500 -2062500 0
-2062500 -2062500 0
-2062500 -2062500 0
-2062500 -2062500 0
-2062500 -2062500 0
-2062500 -2062500 0
-2062500 -2062500 0
-2062500 -2062500 0
-2062500 -2062500 0
-2062500 -2062500 0
-2062500 -2062500 0
-2062500 -2062500 0
-2062500 -2062500 0
-2062500 -2062500 0
-2062500 -2062500 0
-2062500 -2062500 0
-2062500 -2062500 0
-2062500 -2062500 0
-2062500 -2062500 0
-2062500 -2062500 0
-2062500 -2062500 0
-2062500 -2062500 0
-2062500 -2062500 0
-2062500 -2062500 0
-2062500 -2062500 0
-2062500 -2062500 0
-2062500 -2062500 0
-2062500 -2062500 0
-2062500 -2062500 0
-2062500 -2062500 0
-2062500 -2062500 0
-2062500 -2062500 0
-2062500 -2062500 0
-2062500 -2062500 0
-2062500 -2062500 0
-2062500 -2062500 0
-2062500 -2062500 0
-2062500 -2062500 0
-2062500 -2062500 0
-2062500 -2062500 0
-2062500 -2062500 0
-2062500 -2062500 0
-2062500 -2062500 0
-2062500 -2062500 0
-2062500 -2062500 0
-2062500 -2062500 0
-2062500 -2062500 0
-2062500 -2062500 0
-2062500 -2062500 0
-2062500 -2062500 0
-2062500 -2062500 0
-2062500 -2062500 0
-2062500 -2062500 0
-2062500 -2062500 0
-2062500 -2062500 0
-2062500 -2062500 0
-2062500 -2062500 0
-2062500 -2062500 0
-2062500 -2062500 0
-2062500 -2062500 0
-2062500 -2062500 0
-2062500 -2062500 0
-2062500 -2062500 0
-2062500 -2062500 0
-2062500 -2062500 0
-2062500 -2062500 0
-2062500 -2062500 0
-2062500 -2062500 0
-2062500 -2062500 0
-2062500 -2062500 0
-2062500 -2062500 0
-2062500 -2062500 0
-2062500 -2062500 0
-2062500 -2062500 0
-2062500 -2062500 0
-2062500 -2062500 0
-2062500 -2062500 0
-2062500 -2062500 0
-2062500 -2062500 0
-2062500 -2062500 0
-2062500 -2062500 0
-2062500 -2062500 0
-2062500 -2062500 0
-2062500 -2062500 0
-2062500 -2062500 0
-2062500 -2062500 0
-2062500 -2062500 0
-2062500 -2062500 0
-2062500 -2062500 0
-2062500 -2062500 0
-2062500 -2062500 0
-2062500 -2062500 0
-2062500 -2062500 0
-2062500 -2062500 0
-2062500 -2062500 0
-2062500 -2062500 0
-2062500 -2062500 0
-2062500 -2062500 0
-2062500 -2062500 0
-2062500 -2062500 0
-2062500 -2062500 0
-2062500 -2062500 0
-2062500 -2062500 0
-2062500 -2062500 0
-2062500 -2062500 0
-2062500 -2062500 0
-1718750 -1718750 0
-1750000 -1750000 0
-1781250 -1781250 0
-1906250 -1906250 0
-1812500 -1812500 0
-1875000 -1875000 0
-1750000 -1750000 0
-1812500 -1812500 0
-1875000 -1875000 0
-1968750 -1968750 0
-2000000 -2000000 0
-2093750 -2093750 0
-2250000 -2250000 0
-2406250 -2406250 0
-2406250 -2406250 0
-2531250 -2531250 0
-2843750 -2843750 0
-3031250 -3031250 0
-3031250 -3031250 0
-2656250 -2656250 0
-2062500 -2062500 0
-1375000 -1375000 0
-437500 -437500 0
750000 750000 0
2343750 2343750 0
3875000 3875000 0
4875000 4875000 0
5250000 5250000 0
4781250 4781250 0
3250000 3250000 0
1062500 1062500 0
-1031250 -1031250 0
-2281250 -2281250 0
-2718750 -2718750 0
-2656250 -2656250 0
-2312500 -2312500 0
-2062500 -2062500 0
-2031250 -2031250 0
-2093750 -2093750 0
-2156250 -2156250 0
-2062500 -2062500 0
-2031250 -2031250 0
-1968750 -1968750 0
-1937500 -1937500 0
-2000000 -2000000 0
-2093750 -2093750 0
-2125000 -2125000 0
-2031250 -2031250 0
-2156250 -2156250 0
-2093750 -2093750 0
-2062500 -2062500 0
-2093750 -2093750 0
-2062500 -2062500 0
-2031250 -2031250 0
-2062500 -2062500 0
-2062500 -2062500 0
-2156250 -2156250 0
-2218750 -2218750 0
-2093750 -2093750 0
-2031250 -2031250 0
-1906250 -1906250 0
-2000000 -2000000 0
-2000000 -2000000 0
-2062500 -2062500 0
-2125000 -2125000 0
-2093750 -2093750 0
-2125000 -2125000 0
-2156250 -2156250 0
-2218750 -2218750 0
-2218750 -2218750 0
-2125000 -2125000 0
-2062500 -2062500 0
-2062500 -2062500 0
-2062500 -2062500 0
-2125000 -2125000 0
-2187500 -2187500 0
-2031250 -2031250 0
-2031250 -2031250 0
-2062500 -2062500 0
-2062500 -2062500 0
-2093750 -2093750 0
-2093750 -2093750 0
-2125000 -2125000 0
-2062500 -2062500 0
-2125000 -2125000 0
-2187500 -2187500 0
-2218750 -2218750 0
-2187500 -2187500 0
-2156250 -2156250 0
-2062500 -2062500 0
-2000000 -2000000 0
-2093750 -2093750 0
-2062500 -2062500 0
-2156250 -2156250 0
-2062500 -2062500 0
-2093750 -2093750 0
-2093750 -2093750 0
-2156250 -2156250 0
-2156250 -2156250 0
-2218750 -2218750 0
-2125000 -2125000 0
-2125000 -2125000 0
-2093750 -2093750 0
-2062500 -2062500 0
-2187500 -2187500 0
-2187500 -2187500 0
-2156250 -2156250 0
-2093750 -2093750 0
-2093750 -2093750 0
-2093750 -2093750 0
-2187500 -2187500 0
-2218750 -2218750 0
-2218750 -2218750 0
-2156250 -2156250 0
-2156250 -2156250 0
-2093750 -2093750 0
-2187500 -2187500 0
-2250000 -2250000 0
-2250000 -2250000 0
-2250000 -2250000 0
-2281250 -2281250 0
-2250000 -2250000 0
-2312500 -2312500 0
-2406250 -2406250 0
-2312500 -2312500 0
-2250000 -2250000 0
-2218750 -2218750 0
-2250000 -2250000 0
-2343750 -2343750 0
-2343750 -2343750 0
-2281250 -2281250 0
-2281250 -2281250 0
-2250000 -2250000 0
-2250000 -2250000 0
-2281250 -2281250 0
-2312500 -2312500 0
-2218750 -2218750 0
-2062500 -2062500 0
-2031250 -2031250 0
-2031250 -2031250 0
-2093750 -2093750 0
-2125000 -2125000 0
-1968750 -1968750 0
-1875000 -1875000 0
-1875000 -1875000 0
-1812500 -1812500 0
-1843750 -1843750 0
-1812500 -1812500 0
-1781250 -1781250 0
-1718750 -1718750 0
-1593750 -1593750 0
-1562500 -1562500 0
-1562500 -1562500 0
-1656250 -1656250 0
-1593750 -1593750 0
-1531250 -1531250 0
-1437500 -1437500 0
-1531250 -1531250 0
-1531250 -1531250 0
-1593750 -1593750 0
-1593750 -1593750 0
-1500000 -1500000 0
-1562500 -1562500 0
-1593750 -1593750 0
-1531250 -1531250 0
-1593750 -1593750 0
-1562500 -1562500 0
-1562500 -1562500 0
-1656250 -1656250 0
-1625000 -1625000 0
-1625000 -1625000 0
-1656250 -1656250 0
-1687500 -1687500 0
-1656250 -1656250 0
-1625000 -1625000 0
-1718750 -1718750 0
-1750000 -1750000 0
-1812500 -1812500 0
-1718750 -1718750 0
-1687500 -1687500 0
-1625000 -1625000 0
-1750000 -1750000 0
-1750000 -1750000 0
-1781250 -1781250 0
-1718750 -1718750 0
-1718750 -1718750 0
-1656250 -1656250 0
-1687500 -1687500 0
-1781250 -1781250 0
-1812500 -1812500 0
-1750000 -1750000 0
-1718750 -1718750 0
-1781250 -1781250 0
-1750000 -1750000 0
-1875000 -1875000 0
-1875000 -1875000 0
-1906250 -1906250 0
-1843750 -1843750 0
-1875000 -1875000 0
-1937500 -1937500 0
-1937500 -1937500 0
-1906250 -1906250 0
-1843750 -1843750 0
-1781250 -1781250 0
-1781250 -1781250 0
-1812500 -1812500 0
-1843750 -1843750 0
-1937500 -1937500 0
-1812500 -1812500 0
-1843750 -1843750 0
-1875000 -1875000 0
-1906250 -1906250 0
-1937500 -1937500 0
-2031250 -2031250 0
-1937500 -1937500 0
-1875000 -1875000 0
-1812500 -1812500 0
-1937500 -1937500 0
-2031250 -2031250 0
-2062500 -2062500 0
-1968750 -1968750 0
-1875000 -1875000 0
-1906250 -1906250 0
-1937500 -1937500 0
-2000000 -2000000 0
-2062500 -2062500 0
-2031250 -2031250 0
-1968750 -1968750 0
-1937500 -1937500 0
-1906250 -1906250 0
-1906250 -1906250 0
-1937500 -1937500 0
-1875000 -1875000 0
-1906250 -1906250 0
-1812500 -1812500 0
-1875000 -1875000 0
-1875000 -1875000 0
-1906250 -1906250 0
-1906250 -1906250 0
-1812500 -1812500 0
-1750000 -1750000 0
-1843750 -1843750 0
-1906250 -1906250 0
-1968750 -1968750 0
-1906250 -1906250 0
-1843750 -1843750 0
-1812500 -1812500 0
-1750000 -1750000 0
-1687500 -1687500 0
-1718750 -1718750 0
-1718750 -1718750 0
-1687500 -1687500 0
-1562500 -1562500 0
-1562500 -1562500 0
-1593750 -1593750 0
-1406250 -1406250 0
-1375000 -1375000 0
-1281250 -1281250 0
-1250000 -1250000 0
-1281250 -1281250 0
-1343750 -1343750 0
-1437500 -1437500 0
-1375000 -1375000 0
-1406250 -1406250 0
-1406250 -1406250 0
-1406250 -1406250 0
-1437500 -1437500 0
-1468750 -1468750 0
-1500000 -1500000 0
-1468750 -1468750 0
-1375000 -1375000 0
-1312500 -1312500 0
-1281250 -1281250 0
-1531250 -1531250 0
-1781250 -1781250 0
-1781250 -1781250 0
-1875000 -1875000 0
-1937500 -1937500 0
-2062500 -2062500 0
-2062500 -2062500 0
-2062500 -2062500 0
-2062500 -2062500 0
-2062500 -2062500 0
-2062500 -2062500 0
-2062500 -2062500 0
-2062500 -2062500 0
-2062500 -2062500 0
-2062500 -2062500 0
-2062500 -2062500 0
-2062500 -2062500 0
-2062500 -2062500 0
-2062500 -2062500 0
-2062500 -2062500 0
-2062500 -2062500 0
-2062500 -2062500 0
-2062500 -2062500 0
-2062500 -2062500 0
-2062500 -2062500 0
-2062500 -2062500 0
-2062500 -2062500 0
-2062500 -2062500 0
-2062500 -2062500 0
-2062500 -2062500 0
-2062500 -2062500 0
-2062500 -2062500 0
-2062500 -2062500 0
-2062500 -2062500 0
-2062500 -2062500 0
-2062500 -2062500 0
-2062500 -2062500 0
-2062500 -2062500 0
-2062500 -2062500 0
-2062500 -2062500 0
-2062500 -2062500 0
-2062500 -2062500 0
-2062500 -2062500 0
-2062500 -2062500 0
-2062500 -2062500 0
-2062500 -2062500 0
-2062500 -2062500 0
-2062500 -2062500 0
-2062500 -2062500 0
-2062500 -2062500 0
-2062500 -2062500 0
-2062500 -2062500 0
-2062500 -2062500 0
-2062500 -2062500 0
-2062500 -2062500 0
-2062500 -2062500 0
-2062500 -2062500 0
-2062500 -2062500 0
-2062500 -2062500 0
-2062500 -2062500 0
-2062500 -2062500 0
-2062500 -2062500 0
-2062500 -2062500 0
-2062500 -2062500 0
-2062500 -2062500 0
-2062500 -2062500 0
-2062500 -2062500 0
-2062500 -2062500 0
-2062500 -2062500 0
-2062500 -2062500 0
-2062500 -2062500 0
-2062500 -2062500 0
-2062500 -2062500 0
-2062500 -2062500 0
-2062500 -2062500 0
-2062500 -2062500 0
-2062500 -2062500 0
-2062500 -2062500 0
-2062500 -2062500 0
-2062500 -2062500 0
-2062500 -2062500 0
-2062500 -2062500 0
-2062500 -2062500 0
-2062500 -2062500 0
-2062500 -2062500 0
-2062500 -2062500 0
-2062500 -2062500 0
-2062500 -2062500 0
-2062500 -2062500 0
-2062500 -2062500 0
-2062500 -2062500 0
-2062500 -2062500 0
-2062500 -2062500 0
-2062500 -2062500 0
-2062500 -2062500 0
-2062500 -2062500 0
-2062500 -2062500 0
-2062500 -2062500 0
-2062500 -2062500 0
-2062500 -2062500 0
-2062500 -2062500 0
-2062500 -2062500 0
-2062500 -2062500 0
-2062500 -2062500 0
-2062500 -2062500 0
-2062500 -2062500 0
-2062500 -2062500 0
-2062500 -2062500 0
-2062500 -2062500 0
-2062500 -2062500 0
-2062500 -2062500 0
-2062500 -2062500 0
-2062500 -2062500 0
-2062500 -2062500 0
-2062500 -2062500 0
-2062500 -2062500 0
-2062500 -2062500 0
-2062500 -2062500 0
-2062500 -2062500 0
-2062500 -2062500 0
-2062500 -2062500 0
-2062500 -2062500 0
-2062500 -2062500 0
-2062500 -2062500 0
-2062500 -2062500 0
-2062500 -2062500 0
-2062500 -2062500 0
-2062500 -2062500 0
-2062500 -2062500 0
-2062500 -2062500 0
-2062500 -2062500 0
-2062500 -2062500 0
-2062500 -2062500 0
-2062500 -2062500 0
-2062500 -2062500 0
-2062500 -2062500 0
-2062500 -2062500 0
-2062500 -2062500 0
-2062500 -2062500 0
-2062500 -2062500 0
-2062500 -2062500 0
-2062500 -2062500 0
-2062500 -2062500 0
-2062500 -2062500 0
-2062500 -2062500 0
-2062500 -2062500 0
-2062500 -2062500 0
-2062500 -2062500 0
-2062500 -2062500 0
-2062500 -2062500 0
-2062500 -2062500 0
-2062500 -2062500 0
-2062500 -2062500 0
-2062500 -2062500 0
-2062500 -2062500 0
-2062500 -2062500 0
-2062500 -2062500 0
-2062500 -2062500 0
-2062500 -2062500 0
-2062500 -2062500 0
-2062500 -2062500 0
-2062500 -2062500 0
-2062500 -2062500 0
-2062500 -2062500 0
-2062500 -2062500 0
-2062500 -2062500 0
-2062500 -2062500 0
-2062500 -2062500 0
-2062500 -2062500 0
-2062500 -2062500 0
-2062500 -2062500 0
-2062500 -2062500 0
-2062500 -2062500 0
-2062500 -2062500 0
-2062500 -2062500 0
-2062500 -2062500 0
-2062500 -2062500 0
-2062500 -2062500 0
-2062500 -2062500 0
-2062500 -2062500 0
-2062500 -2062500 0
-2062500 -2062500 0
-2062500 -2062500 0
-2062500 -2062500 0
-2062500 -2062500 0
-2062500 -2062500 0
-2062500 -2062500 0
-2062500 -2062500 0
-2062500 -2062500 0
-2062500 -2062500 0
-2062500 -2062500 0
-2062500 -2062500 0
-2062500 -2062500 0
-2062500 -2062500 0
-2062500 -2062500 0
-2062500 -2062500 0
-2062500 -2062500 0
-2062500 -2062500 0
-2062500 -2062500 0
-2062500 -2062500 0
-2062500 -2062500 0
-2062500 -2062500 0
-2062500 -2062500 0
-2062500 -2062500 0
-2062500 -2062500 0
-2062500 -2062500 0
-2062500 -2062500 0
-2062500 -2062500 0
-2062500 -2062500 0
-2062500 -2062500 0
-2062500 -2062500 0
-2062500 -2062500 0
-2062500 -2062500 0
-2062500 -2062500 0
-2062500 -2062500 0
-2062500 -2062500 0
-2062500 -2062500 0
-2062500 -2062500 0
-2062500 -2062500 0
-2062500 -2062500 0
-2062500 -2062500 0
-2062500 -2062500 0
-2062500 -2062500 0
-2062500 -2062500 0
-2062500 -2062500 0
-2062500 -2062500 0
-2062500 -2062500 0
-2062500 -2062500 0
-2062500 -2062500 0
-2062500 -2062500 0
-2062500 -2062500 0
-2062500 -2062500 0
-2062500 -2062500 0
-2062500 -2062500 0
-2062500 -2062500 0
-2062500 -2062500 0
-2062500 -2062500 0
-2062500 -2062500 0
-2062500 -2062500 0
-2062500 -2062500 0
-2062500 -2062500 0
-2062500 -2062500 0
-2062500 -2062500 0
-2062500 -2062500 0
-2062500 -2062500 0
-2062500 -2062500 0
-2062500 -2062500 0
-2062500 -2062500 0
-2062500 -2062500 0
-2062500 -2062500 0
-2062500 -2062500 0
-2062500 -2062500 0
-2062500 -2062500 0
-2062500 -2062500 0
-2062500 -2062500 0
-2062500 -2062500 0
-2062500 -2062500 0
-2062500 -2062500 0
-2062500 -2062500 0
-2062500 -2062500 0
-2062500 -2062500 0
-2062500 -2062500 0
-2062500 -2062500 0
-2062500 -2062500 0
-2062500 -2062500 0
-2062500 -2062500 0
-2062500 -2062500 0
-2062500 -2062500 0
-2062500 -2062500 0
-2062500 -2062500 0
-2062500 -2062500 0
-2062500 -2062500 0
-2062500 -2062500 0
-2062500 -2062500 0
-2062500 -2062500 0
-2062500 -2062500 0
-2062500 -2062500 0
-2062500 -2062500 0
-2062500 -2062500 0
-2062500 -2062500 0
-2062500 -2062500 0
-2062500 -2062500 0
-2062500 -2062500 0
-2062500 -2062500 0
-2062500 -2062500 0
-2062500 -2062500 0
-2062500 -2062500 0
-2062500 -2062500 0
-2062500 -2062500 0
-2062500 -2062500 0
-2062500 -2062500 0
-2062500 -2062500 0
-2062500 -2062500 0
-2062500 -2062500 0
-2062500 -2062500 0
-2062500 -2062500 0
-2062500 -2062500 0
-2062500 -2062500 0
-2062500 -2062500 0
-2062500 -2062500 0
-2062500 -2062500 0
-2062500 -2062500 0
-2062500 -2062500 0
-2062500 -2062500 0
-2062500 -2062500 0
-2062500 -2062500 0
-2062500 -2062500 0
-2062500 -2062500 0
-2062500 -2062500 0
-2062500 -2062500 0
-2062500 -2062500 0
-2062500 -2062500 0
-2062500 -2062500 0
-2062500 -2062500 0
-2062500 -2062500 0
-2062500 -2062500 0
-2062500 -2062500 0
-2062500 -2062500 0
-2062500 -2062500 0
-2062500 -2062500 0
-2062500 -2062500 0
-2062500 -2062500 0
-2062500 -2062500 0
-2062500 -2062500 0
-2062500 -2062500 0
-2062500 -2062500 0
-2062500 -2062500 0
-1718750 -1718750 0
-1750000 -1750000 0
-1781250 -1781250 0
-1906250 -1906250 0
-1812500 -1812500 0
-1875000 -1875000 0
-1750000 -1750000 0
-1812500 -1812500 0
-1875000 -1875000 0
-1968750 -1968750 0
-2000000 -2000000 0
-2093750 -2093750 0
-2250000 -2250000 0
-2406250 -2406250 0
-2406250 -2406250 0
-2531250 -2531250 0
-2843750 -2843750 0
-3031250 -3031250 0
-3031250 -3031250 0
-2656250 -2656250 0
-2062500 -2062500 0
-1375000 -1375000 0
-437500 -437500 0
750000 750000 0
2343750 2343750 0
3875000 3875000 0
4875000 4875000 0
5250000 5250000 0
4781250 4781250 0
3250000 3250000 0
1062500 1062500 0
-1031250 -1031250 0
-2281250 -2281250 0
-2718750 -2718750 0
-2656250 -2656250 0
-2312500 -2312500 0
-2062500 -2062500 0
-2031250 -2031250 0
-2093750 -2093750 0
-2156250 -2156250 0
-2062500 -2062500 0
-2031250 -2031250 0
-1968750 -1968750 0
-1937500 -1937500 0
-2000000 -2000000 0
-2093750 -2093750 0
-2125000 -2125000 0
-2031250 -2031250 0
-2156250 -2156250 0
-2093750 -2093750 0
-2062500 -2062500 0
-2093750 -2093750 0
-2062500 -2062500 0
-2031250 -2031250 0
-2062500 -2062500 0
-2062500 -2062500 0
-2156250 -2156250 0
-2218750 -2218750 0
-2093750 -2093750 0
-2031250 -2031250 0
-1906250 -1906250 0
-2000000 -2000000 0
-2000000 -2000000 0
-2062500 -2062500 0
-2125000 -2125000 0
-2093750 -2093750 0
-2125000 -2125000 0
-2156250 -2156250 0
-2218750 -2218750 0
-2218750 -2218750 0
-2125000 -2125000 0
-2062500 -2062500 0
-2062500 -2062500 0
-2062500 -2062500 0
-2125000 -2125000 0
-2187500 -2187500 0
-2031250 -2031250 0
-2031250 -2031250 0
-2062500 -2062500 0
-2062500 -2062500 0
-2093750 -2093750 0
-2093750 -2093750 0
-2125000 -2125000 0
-2062500 -2062500 0
-2125000 -2125000 0
-2187500 -2187500 0
-2218750 -2218750 0
-2187500 -2187500 0
-2156250 -2156250 0
-2062500 -2062500 0
-2000000 -2000000 0
-2093750 -2093750 0
-2062500 -2062500 0
-2156250 -2156250 0
-2062500 -2062500 0
-2093750 -2093750 0
-2093750 -2093750 0
-2156250 -2156250 0
-2156250 -2156250 0
-2218750 -2218750 0
-2125000 -2125000 0
-2125000 -2125000 0
-2093750 -2093750 0
-2062500 -2062500 0
-2187500 -2187500 0
-2187500 -2187500 0
-2156250 -2156250 0
-2093750 -2093750 0
-2093750 -2093750 0
-2093750 -2093750 0
-2187500 -2187500 0
-2218750 -2218750 0
-2218750 -2218750 0
-2156250 -2156250 0
-2156250 -2156250 0
-2093750 -2093750 0
-2187500 -2187500 0
-2250000 -2250000 0
-2250000 -2250000 0
-2250000 -2250000 0
-2281250 -2281250 0
-2250000 -2250000 0
-2312500 -2312500 0
-2406250 -2406250 0
-2312500 -2312500 0
-2250000 -2250000 0
-2218750 -2218750 0
-2250000 -2250000 0
-2343750 -2343750 0
-2343750 -2343750 0
-2281250 -2281250 0
-2281250 -2281250 0
-2250000 -2250000 0
-2250000 -2250000 0
-2281250 -2281250 0
-2312500 -2312500 0
-2218750 -2218750 0
-2062500 -2062500 0
-2031250 -2031250 0
-2031250 -2031250 0
-2093750 -2093750 0
-2125000 -2125000 0
-1968750 -1968750 0
-1875000 -1875000 0
-1875000 -1875000 0
-1812500 -1812500 0
-1843750 -1843750 0
-1812500 -1812500 0
-1781250 -1781250 0
-1718750 -1718750 0
-1593750 -1593750 0
-1562500 -1562500 0
-1562500 -1562500 0
-1656250 -1656250 0
-1593750 -1593750 0
-1531250 -1531250 0
-1437500 -1437500 0
-1531250 -1531250 0
-1531250 -1531250 0
-1593750 -1593750 0
-1593750 -1593750 0
-1500000 -1500000 0
-1562500 -1562500 0
-1593750 -1593750 0
-1531250 -1531250 0
-1593750 -1593750 0
-1562500 -1562500 0
-1562500 -1562500 0
-1656250 -1656250 0
-1625000 -1625000 0
-1625000 -1625000 0
-1656250 -1656250 0
-1687500 -1687500 0
-1656250 -1656250 0
-1625000 -1625000 0
-1718750 -1718750 0
-1750000 -1750000 0
-1812500 -1812500 0
-1718750 -1718750 0
-1687500 -1687500 0
-1625000 -1625000 0
-1750000 -1750000 0
-1750000 -1750000 0
-1781250 -1781250 0
-1718750 -1718750 0
-1718750 -1718750 0
-1656250 -1656250 0
-1687500 -1687500 0
-1781250 -1781250 0
-1812500 -1812500 0
-1750000 -1750000 0
-1718750 -1718750 0
-1781250 -1781250 0
-1750000 -1750000 0
-1875000 -1875000 0
-1875000 -1875000 0
-1906250 -1906250 0
-1843750 -1843750 0
-1875000 -1875000 0
-1937500 -1937500 0
-1937500 -1937500 0
-1906250 -1906250 0
-1843750 -1843750 0
-1781250 -1781250 0
-1781250 -1781250 0
-1812500 -1812500 0
-1843750 -1843750 0
-1937500 -1937500 0
-1812500 -1812500 0
-1843750 -1843750 0
-1875000 -1875000 0
-1906250 -1906250 0
-1937500 -1937500 0
-2031250 -2031250 0
-1937500 -1937500 0
-1875000 -1875000 0
-1812500 -1812500 0
-1937500 -1937500 0
-2031250 -2031250 0
-2062500 -2062500 0
-1968750 -1968750 0
-1875000 -1875000 0
-1906250 -1906250 0
-1937500 -1937500 0
-2000000 -2000000 0
-2062500 -2062500 0
-2031250 -2031250 0
-1968750 -1968750 0
-1937500 -1937500 0
-1906250 -1906250 0
-1906250 -1906250 0
-1937500 -1937500 0
-1875000 -1875000 0
-1906250 -1906250 0
-1812500 -1812500 0
-1875000 -1875000 0
-1875000 -1875000 0
-1906250 -1906250 0
-1906250 -1906250 0
-1812500 -1812500 0
-1750000 -1750000 0
-1843750 -1843750 0
-1906250 -1906250 0
-1968750 -1968750 0
-1906250 -1906250 0
-1843750 -1843750 0
-1812500 -1812500 0
-1750000 -1750000 0
-1687500 -1687500 0
-1718750 -1718750 0
-1718750 -1718750 0
-1687500 -1687500 0
-1562500 -1562500 0
-1562500 -1562500 0
-1593750 -1593750 0
-1406250 -1406250 0
-1375000 -1375000 0
-1281250 -1281250 0
-1250000 -1250000 0
-1281250 -1281250 0
-1343750 -1343750 0
-1437500 -1437500 0
-1375000 -1375000 0
-1406250 -1406250 0
-1406250 -1406250 0
-1406250 -1406250 0
-1437500 -1437500 0
-1468750 -1468750 0
-1500000 -1500000 0
-1468750 -1468750 0
-1375000 -1375000 0
-1312500 -1312500 0
-1281250 -1281250 0
-1531250 -1531250 0
-1781250 -1781250 0
-1781250 -1781250 0
-1875000 -1875000 0
-1937500 -1937500 0
-2062500 -2062500 0
-2062500 -2062500 0
-2062500 -2062500 0
-2062500 -2062500 0
-2062500 -2062500 0
-2062500 -2062500 0
-2062500 -2062500 0
-2062500 -2062500 0
-2062500 -2062500 0
-2062500 -2062500 0
-2062500 -2062500 0
-2062500 -2062500 0
-2062500 -2062500 0
-2062500 -2062500 0
-2062500 -2062500 0
-2062500 -2062500 0
-2062500 -2062500 0
-2062500 -2062500 0
-2062500 -2062500 0
-2062500 -2062500 0
-2062500 -2062500 0
-2062500 -2062500 0
-2062500 -2062500 0
-2062500 -2062500 0
-2062500 -2062500 0
-2062500 -2062500 0
-2062500 -2062500 0
-2062500 -2062500 0
-2062500 -2062500 0
-2062500 -2062500 0
-2062500 -2062500 0
-2062500 -2062500 0
-2062500 -2062500 0
-2062500 -2062500 0
-2062500 -2062500 0
-2062500 -2062500 0
-2062500 -2062500 0
-2062500 -2062500 0
-2062500 -2062500 0
-2062500 -2062500 0
-2062500 -2062500 0
-2062500 -2062500 0
-2062500 -2062500 0
-2062500 -2062500 0
-2062500 -2062500 0
-2062500 -2062500 0
-2062500 -2062500 0
-2062500 -2062500 0
-2062500 -2062500 0
-2062500 -2062500 0
-2062500 -2062500 0
-2062500 -2062500 0
-2062500 -2062500 0
-2062500 -2062500 0
-2062500 -2062500 0
-2062500 -2062500 0
-2062500 -2062500 0
-2062500 -2062500 0
-2062500 -2062500 0
-2062500 -2062500 0
-2062500 -2062500 0
-2062500 -2062500 0
-2062500 -2062500 0
-2062500 -2062500 0
-2062500 -2062500 0
-2062500 -2062500 0
-2062500 -2062500 0
-2062500 -2062500 0
-2062500 -2062500 0
-2062500 -2062500 0
-2062500 -2062500 0
-2062500 -2062500 0
-2062500 -2062500 0
-2062500 -2062500 0
-2062500 -2062500 0
-2062500 -2062500 0
-2062500 -2062500 0
-2062500 -2062500 0
-2062500 -2062500 0
-2062500 -2062500 0
-2062500 -2062500 0
-2062500 -2062500 0
-2062500 -2062500 0
-2062500 -2062500 0
-2062500 -2062500 0
-2062500 -2062500 0
-2062500 -2062500 0
-2062500 -2062500 0
-2062500 -2062500 0
-2062500 -2062500 0
-2062500 -2062500 0
-2062500 -2062500 0
-2062500 -2062500 0
-2062500 -2062500 0
-2062500 -2062500 0
-2062500 -2062500 0
-2062500 -2062500 0
-2062500 -2062500 0
-2062500 -2062500 0
-2062500 -2062500 0
-2062500 -2062500 0
-2062500 -2062500 0
-2062500 -2062500 0
-2062500 -2062500 0
-2062500 -2062500 0
-2062500 -2062500 0
-2062500 -2062500 0
-2062500 -2062500 0
-2062500 -2062500 0
-2062500 -2062500 0
-2062500 -2062500 0
-2062500 -2062500 0
-2062500 -2062500 0
-2062500 -2062500 0
-2062500 -2062500 0
-2062500 -2062500 0
-2062500 -2062500 0
-2062500 -2062500 0
-2062500 -2062500 0
-2062500 -2062500 0
-2062500 -2062500 0
-2062500 -2062500 0
-2062500 -2062500 0
-2062500 -2062500 0
-2062500 -2062500 0
-2062500 -2062500 0
-2062500 -2062500 0
-2062500 -2062500 0
-2062500 -2062500 0
-2062500 -2062500 0
-2062500 -2062500 0
-2062500 -2062500 0
-2062500 -2062500 0
-2062500 -2062500 0
-2062500 -2062500 0
-2062500 -2062500 0
-2062500 -2062500 0
-2062500 -2062500 0
-2062500 -2062500 0
-2062500 -2062500 0
-2062500 -2062500 0
-2062500 -2062500 0
-2062500 -2062500 0
-2062500 -2062500 0
-2062500 -2062500 0
-2062500 -2062500 0
-2062500 -2062500 0
-2062500 -2062500 0
-2062500 -2062500 0
-2062500 -2062500 0
-2062500 -2062500 0
-2062500 -2062500 0
-2062500 -2062500 0
-2062500 -2062500 0
-2062500 -2062500 0
-2062500 -2062500 0
-2062500 -2062500 0
-2062500 -2062500 0
-2062500 -2062500 0
-2062500 -2062500 0
-2062500 -2062500 0
-2062500 -2062500 0
-2062500 -2062500 0
-2062500 -2062500 0
-2062500 -2062500 0
-2062500 -2062500 0
-2062500 -2062500 0
-2062500 -2062500 0
-2062500 -2062500 0
-2062500 -2062500 0
-2062500 -2062500 0
-2062500 -2062500 0
-2062500 -2062500 0
-2062500 -2062500 0
-2062500 -2062500 0
-2062500 -2062500 0
-2062500 -2062500 0
-2062500 -2062500 0
-2062500 -2062500 0
-2062500 -2062500 0
-2062500 -2062500 0
-2062500 -2062500 0
-2062500 -2062500 0
-2062500 -2062500 0
-2062500 -2062500 0
-2062500 -2062500 0
-2062500 -2062500 0
-2062500 -2062500 0
-2062500 -2062500 0
-2062500 -2062500 0
-2062500 -2062500 0
-2062500 -2062500 0
-2062500 -2062500 0
-2062500 -2062500 0
-2062500 -2062500 0
-2062500 -2062500 0
-2062500 -2062500 0
-2062500 -2062500 0
-2062500 -2062500 0
-2062500 -2062500 0
-2062500 -2062500 0
-2062500 -2062500 0
-2062500 -2062500 0
-2062500 -2062500 0
-2062500 -2062500 0
-2062500 -2062500 0
-2062500 -2062500 0
-2062500 -2062500 0
-2062500 -2062500 0
-2062500 -2062500 0
-2062500 -2062500 0
-2062500 -2062500 0
-2062500 -2062500 0
-2062500 -2062500 0
-2062500 -2062500 0
-2062500 -2062500 0
-2062500 -2062500 0
-2062500 -2062500 0
-2062500 -2062500 0
-2062500 -2062500 0
-2062500 -2062500 0
-2062500 -2062500 0
-2062500 -2062500 0
-2062500 -2062500 0
-2062500 -2062500 0
-2062500 -2062500 0
-2062500 -2062500 0
-2062500 -2062500 0
-2062500 -2062500 0
-2062500 -2062500 0
-2062500 -2062500 0
-2062500 -2062500 0
-2062500 -2062500 0
-2062500 -2062500 0
-2062500 -2062500 0
-2062500 -2062500 0
-2062500 -2062500 0
-2062500 -2062500 0
-2062500 -2062500 0
-2062500 -2062500 0
-2062500 -2062500 0
-2062500 -2062500 0
-2062500 -2062500 0
-2062500 -2062500 0
-2062500 -2062500 0
-2062500 -2062500 0
-2062500 -2062500 0
-2062500 -2062500 0
-2062500 -2062500 0
-2062500 -2062500 0
-2062500 -2062500 0
-2062500 -2062500 0
-2062500 -2062500 0
-2062500 -2062500 0
-2062500 -2062500 0
-2062500 -2062500 0
-2062500 -2062500 0
-2062500 -2062500 0
-2062500 -2062500 0
-2062500 -2062500 0
-2062500 -2062500 0
-2062500 -2062500 0
-2062500 -2062500 0
-2062500 -2062500 0
-2062500 -2062500 0
-2062500 -2062500 0
-2062500 -2062500 0
-2062500 -2062500 0
-2062500 -2062500 0
-2062500 -2062500 0
-2062500 -2062500 0
-2062500 -2062500 0
-2062500 -2062500 0
-2062500 -2062500 0
-2062500 -2062500 0
-2062500 -2062500 0
-2062500 -2062500 0
-2062500 -2062500 0
-2062500 -2062500 0
-2062500 -2062500 0
-2062500 -2062500 0
-2062500 -2062500 0
-2062500 -2062500 0
-2062500 -2062500 0
-2062500 -2062500 0
-2062500 -2062500 0
-2062500 -2062500 0
-2062500 -2062500 0
-2062500 -2062500 0
-2062500 -2062500 0
-2062500 -2062500 0
-2062500 -2062500 0
-2062500 -2062500 0
-2062500 -2062500 0
-2062500 -2062500 0
-2062500 -2062500 0
-2062500 -2062500 0
-2062500 -2062500 0
-2062500 -2062500 0
-2062500 -2062500 0
-2062500 -2062500 0
-2062500 -2062500 0
-2062500 -2062500 0
-2062500 -2062500 0
-2062500 -2062500 0
-2062500 -2062500 0
-2062500 -2062500 0
-2062500 -2062500 0
-2062500 -2062500 0
-2062500 -2062500 0
-2062500 -2062500 0
-2062500 -2062500 0
-2062500 -2062500 0
-2062500 -2062500 0
-2062500 -2062500 0
-2062500 -2062500 0
-2062500 -2062500 0
-2062500 -2062500 0
-2062500 -2062500 0
-2062500 -2062500 0
-2062500 -2062500 0
-2062500 -2062500 0
-1718750 -1718750 0
-1750000 -1750000 0
-1781250 -1781250 0
-1906250 -1906250 0
-1812500 -1812500 0
-1875000 -1875000 0
-1750000 -1750000 0
-1812500 -1812500 0
-1875000 -1875000 0
-1968750 -1968750 0
-2000000 -2000000 0
-2093750 -2093750 0
-2250000 -2250000 0
-2406250 -2406250 0
-2406250 -2406250 0
-2531250 -2531250 0
-2843750 -2843750 0
-3031250 -3031250 0
-3031250 -3031250 0
-2656250 -2656250 0
-2062500 -2062500 0
-1375000 -1375000 0
-437500 -437500 0
750000 750000 0
2343750 2343750 0
3875000 3875000 0
4875000 4875000 0
5250000 5250000 0
4781250 4781250 0
3250000 3250000 0
1062500 1062500 0
-1031250 -1031250 0
-2281250 -2281250 0
-2718750 -2718750 0
-2656250 -2656250 0
-2312500 -2312500 0
-2062500 -2062500 0
-2031250 -2031250 0
-2093750 -2093750 0
-2156250 -2156250 0
-2062500 -2062500 0
-2031250 -2031250 0
-1968750 -1968750 0
-1937500 -1937500 0
-2000000 -2000000 0
-2093750 -2093750 0
-2125000 -2125000 0
-2031250 -2031250 0
-2156250 -2156250 0
-2093750 -2093750 0
-2062500 -2062500 0
-2093750 -2093750 0
-2062500 -2062500 0
-2031250 -2031250 0
-2062500 -2062500 0
-2062500 -2062500 0
-2156250 -2156250 0
-2218750 -2218750 0
-2093750 -2093750 0
-2031250 -2031250 0
-1906250 -1906250 0
-2000000 -2000000 0
-2000000 -2000000 0
-2062500 -2062500 0
-2125000 -2125000 0
-2093750 -2093750 0
-2125000 -2125000 0
-2156250 -2156250 0
-2218750 -2218750 0
-2218750 -2218750 0
-2125000 -2125000 0
-2062500 -2062500 0
-2062500 -2062500 0
-2062500 -2062500 0
-2125000 -2125000 0
-2187500 -2187500 0
-2031250 -2031250 0
-2031250 -2031250 0
-2062500 -2062500 0
-2062500 -2062500 0
-2093750 -2093750 0
-2093750 -2093750 0
-2125000 -2125000 0
-2062500 -2062500 0
-2125000 -2125000 0
-2187500 -2187500 0
-2218750 -2218750 0
-2187500 -2187500 0
-2156250 -2156250 0
-2062500 -2062500 0
-2000000 -2000000 0
-2093750 -2093750 0
-2062500 -2062500 0
-2156250 -2156250 0
-2062500 -2062500 0
-2093750 -2093750 0
-2093750 -2093750 0
-2156250 -2156250 0
-2156250 -2156250 0
-2218750 -2218750 0
-2125000 -2125000 0
-2125000 -2125000 0
-2093750 -2093750 0
-2062500 -2062500 0
-2187500 -2187500 0
-2187500 -2187500 0
-2156250 -2156250 0
-2093750 -2093750 0
-2093750 -2093750 0
-2093750 -2093750 0
-2187500 -2187500 0
-2218750 -2218750 0
-2218750 -2218750 0
-2156250 -2156250 0
-2156250 -2156250 0
-2093750 -2093750 0
-2187500 -2187500 0
-2250000 -2250000 0
-2250000 -2250000 0
-2250000 -2250000 0
-2281250 -2281250 0
-2250000 -2250000 0
-2312500 -2312500 0
-2406250 -2406250 0
-2312500 -2312500 0
-2250000 -2250000 0
-2218750 -2218750 0
-2250000 -2250000 0
-2343750 -2343750 0
-2343750 -2343750 0
-2281250 -2281250 0
-2281250 -2281250 0
-2250000 -2250000 0
-2250000 -2250000 0
-2281250 -2281250 0
-2312500 -2312500 0
-2218750 -2218750 0
-2062500 -2062500 0
-2031250 -2031250 0
-2031250 -2031250 0
-2093750 -2093750 0
-2125000 -2125000 0
-1968750 -1968750 0
-1875000 -1875000 0
-1875000 -1875000 0
-1812500 -1812500 0
-1843750 -1843750 0
-1812500 -1812500 0
-1781250 -1781250 0
-1718750 -1718750 0
-1593750 -1593750 0
-1562500 -1562500 0
-1562500 -1562500 0
-1656250 -1656250 0
-1593750 -1593750 0
-1531250 -1531250 0
-1437500 -1437500 0
-1531250 -1531250 0
-1531250 -1531250 0
-1593750 -1593750 0
-1593750 -1593750 0
-1500000 -1500000 0
-1562500 -1562500 0
-1593750 -1593750 0
-1531250 -1531250 0
-1593750 -1593750 0
-1562500 -1562500 0
-1562500 -1562500 0
-1656250 -1656250 0
-1625000 -1625000 0
-1625000 -1625000 0
-1656250 -1656250 0
-1687500 -1687500 0
-1656250 -1656250 0
-1625000 -1625000 0
-1718750 -1718750 0
-1750000 -1750000 0
-1812500 -1812500 0
-1718750 -1718750 0
-1687500 -1687500 0
-1625000 -1625000 0
-1750000 -1750000 0
-1750000 -1750000 0
-1781250 -1781250 0
-1718750 -1718750 0
-1718750 -1718750 0
-1656250 -1656250 0
-1687500 -1687500 0
-1781250 -1781250 0
-1812500 -1812500 0
-1750000 -1750000 0
-1718750 -1718750 0
-1781250 -1781250 0
-1750000 -1750000 0
-1875000 -1875000 0
-1875000 -1875000 0
-1906250 -1906250 0
-1843750 -1843750 0
-1875000 -1875000 0
-1937500 -1937500 0
-1937500 -1937500 0
-1906250 -1906250 0
-1843750 -1843750 0
-1781250 -1781250 0
-1781250 -1781250 0
-1812500 -1812500 0
-1843750 -1843750 0
-1937500 -1937500 0
-1812500 -1812500 0
-1843750 -1843750 0
-1875000 -1875000 0
-1906250 -1906250 0
-1937500 -1937500 0
-2031250 -2031250 0
-1937500 -1937500 0
-1875000 -1875000 0
-1812500 -1812500 0
-1937500 -1937500 0
-2031250 -2031250 0
-2062500 -2062500 0
-1968750 -1968750 0
-1875000 -1875000 0
-1906250 -1906250 0
-1937500 -1937500 0
-2000000 -2000000 0
-2062500 -2062500 0
-2031250 -2031250 0
-1968750 -1968750 0
-1937500 -1937500 0
-1906250 -1906250 0
-1906250 -1906250 0
-1937500 -1937500 0
-1875000 -1875000 0
-1906250 -1906250 0
-1812500 -1812500 0
-1875000 -1875000 0
-1875000 -1875000 0
-1906250 -1906250 0
-1906250 -1906250 0
-1812500 -1812500 0
-1750000 -1750000 0
-1843750 -1843750 0
-1906250 -1906250 0
-1968750 -1968750 0
-1906250 -1906250 0
-1843750 -1843750 0
-1812500 -1812500 0
-1750000 -1750000 0
-1687500 -1687500 0
-1718750 -1718750 0
-1718750 -1718750 0
-1687500 -1687500 0
-1562500 -1562500 0
-1562500 -1562500 0
-1593750 -1593750 0
-1406250 -1406250 0
-1375000 -1375000 0
-1281250 -1281250 0
-1250000 -1250000 0
-1281250 -1281250 0
-1343750 -1343750 0
-1437500 -1437500 0
-1375000 -1375000 0
-1406250 -1406250 0
-1406250 -1406250 0
-1406250 -1406250 0
-1437500 -1437500 0
-1468750 -1468750 0
-1500000 -1500000 0
-1468750 -1468750 0
-1375000 -1375000 0
-1312500 -1312500 0
-1281250 -1281250 0
-1531250 -1531250 0
-1781250 -1781250 0
-1781250 -1781250 0
-1875000 -1875000 0
-1937500 -1937500 0
-2062500 -2062500 0
-2062500 -2062500 0
-2062500 -2062500 0
-2062500 -2062500 0
-2062500 -2062500 0
-2062500 -2062500 0
-2062500 -2062500 0
-2062500 -2062500 0
-2062500 -2062500 0
-2062500 -2062500 0
-2062500 -2062500 0
-2062500 -2062500 0
-2062500 -2062500 0
-2062500 -2062500 0
-2062500 -2062500 0
-2062500 -2062500 0
-2062500 -2062500 0
-2062500 -2062500 0
-2062500 -2062500 0
-2062500 -2062500 0
-2062500 -2062500 0
-2062500 -2062500 0
-2062500 -2062500 0
-2062500 -2062500 0
-2062500 -2062500 0
-2062500 -2062500 0
-2062500 -2062500 0
-2062500 -2062500 0
-2062500 -2062500 0
-2062500 -2062500 0
-2062500 -2062500 0
-2062500 -2062500 0
-2062500 -2062500 0
-2062500 -2062500 0
-2062500 -2062500 0
-2062500 -2062500 0
-2062500 -2062500 0
-2062500 -2062500 0
-2062500 -2062500 0
-2062500 -2062500 0
-2062500 -2062500 0
-2062500 -2062500 0
-2062500 -2062500 0
-2062500 -2062500 0
-2062500 -2062500 0
-2062500 -2062500 0
-2062500 -2062500 0
-2062500 -2062500 0
-2062500 -2062500 0
-2062500 -2062500 0
-2062500 -2062500 0
-2062500 -2062500 0
-2062500 -2062500 0
-2062500 -2062500 0
-2062500 -2062500 0
-2062500 -2062500 0
-2062500 -2062500 0
-2062500 -2062500 0
-2062500 -2062500 0
-2062500 -2062500 0
-2062500 -2062500 0
-2062500 -2062500 0
-2062500 -2062500 0
-2062500 -2062500 0
-2062500 -2062500 0
-2062500 -2062500 0
-2062500 -2062500 0
-2062500 -2062500 0
-2062500 -2062500 0
-2062500 -2062500 0
-2062500 -2062500 0
-2062500 -2062500 0
-2062500 -2062500 0
-2062500 -2062500 0
-2062500 -2062500 0
-2062500 -2062500 0
-2062500 -2062500 0
-2062500 -2062500 0
-2062500 -2062500 0
-2062500 -2062500 0
-2062500 -2062500 0
-2062500 -2062500 0
-2062500 -2062500 0
-2062500 -2062500 0
-2062500 -2062500 0
-2062500 -2062500 0
-2062500 -2062500 0
-2062500 -2062500 0
-2062500 -2062500 0
-2062500 -2062500 0
-2062500 -2062500 0
-2062500 -2062500 0
-2062500 -2062500 0
-2062500 -2062500 0
-2062500 -2062500 0
-2062500 -2062500 0
-2062500 -2062500 0
-2062500 -2062500 0
-2062500 -2062500 0
-2062500 -2062500 0
-2062500 -2062500 0
-2062500 -2062500 0
-2062500 -2062500 0
-2062500 -2062500 0
-2062500 -2062500 0
-2062500 -2062500 0
-2062500 -2062500 0
-2062500 -2062500 0
-2062500 -2062500 0
-2062500 -2062500 0
-2062500 -2062500 0
-2062500 -2062500 0
-2062500 -2062500 0
-2062500 -2062500 0
-2062500 -2062500 0
-2062500 -2062500 0
-2062500 -2062500 0
-2062500 -2062500 0
-2062500 -2062500 0
-2062500 -2062500 0
-2062500 -2062500 0
-2062500 -2062500 0
-2062500 -2062500 0
-2062500 -2062500 0
-2062500 -2062500 0
-2062500 -2062500 0
-2062500 -2062500 0
-2062500 -2062500 0
-2062500 -2062500 0
-2062500 -2062500 0
-2062500 -2062500 0
-2062500 -2062500 0
-2062500 -2062500 0
-2062500 -2062500 0
-2062500 -2062500 0
-2062500 -2062500 0
-2062500 -2062500 0
-2062500 -2062500 0
-2062500 -2062500 0
-2062500 -2062500 0
-2062500 -2062500 0
-2062500 -2062500 0
-2062500 -2062500 0
-2062500 -2062500 0
-2062500 -2062500 0
-2062500 -2062500 0
-2062500 -2062500 0
-2062500 -2062500 0
-2062500 -2062500 0
-2062500 -2062500 0
-2062500 -2062500 0
-2062500 -2062500 0
-2062500 -2062500 0
-2062500 -2062500 0
-2062500 -2062500 0
-2062500 -2062500 0
-2062500 -2062500 0
-2062500 -2062500 0
-2062500 -2062500 0
-2062500 -2062500 0
-2062500 -2062500 0
-2062500 -2062500 0
-2062500 -2062500 0
-2062500 -2062500 0
-2062500 -2062500 0
-2062500 -2062500 0
-2062500 -2062500 0
-2062500 -2062500 0
-2062500 -2062500 0
-2062500 -2062500 0
-2062500 -2062500 0
-2062500 -2062500 0
-2062500 -2062500 0
-2062500 -2062500 0
-2062500 -2062500 0
-2062500 -2062500 0
-2062500 -2062500 0
-2062500 -2062500 0
-2062500 -2062500 0
-2062500 -2062500 0
-2062500 -2062500 0
-2062500 -2062500 0
-2062500 -2062500 0
-2062500 -2062500 0
-2062500 -2062500 0
-2062500 -2062500 0
-2062500 -2062500 0
-2062500 -2062500 0
-2062500 -2062500 0
-2062500 -2062500 0
-2062500 -2062500 0
-2062500 -2062500 0
-2062500 -2062500 0
-2062500 -2062500 0
-2062500 -2062500 0
-2062500 -2062500 0
-2062500 -2062500 0
-2062500 -2062500 0
-2062500 -2062500 0
-2062500 -2062500 0
-2062500 -2062500 0
-2062500 -2062500 0
-2062500 -2062500 0
-2062500 -2062500 0
-2062500 -2062500 0
-2062500 -2062500 0
-2062500 -2062500 0
-2062500 -2062500 0
-2062500 -2062500 0
-2062500 -2062500 0
-2062500 -2062500 0
-2062500 -2062500 0
-2062500 -2062500 0
-2062500 -2062500 0
-2062500 -2062500 0
-2062500 -2062500 0
-2062500 -2062500 0
-2062500 -2062500 0
-2062500 -2062500 0
-2062500 -2062500 0
-2062500 -2062500 0
-2062500 -2062500 0
-2062500 -2062500 0
-2062500 -2062500 0
-2062500 -2062500 0
-2062500 -2062500 0
-2062500 -2062500 0
-2062500 -2062500 0
-2062500 -2062500 0
-2062500 -2062500 0
-2062500 -2062500 0
-2062500 -2062500 0
-2062500 -2062500 0
-2062500 -2062500 0
-2062500 -2062500 0
-2062500 -2062500 0
-2062500 -2062500 0
-2062500 -2062500 0
-2062500 -2062500 0
-2062500 -2062500 0
-2062500 -2062500 0
-2062500 -2062500 0
-2062500 -2062500 0
-2062500 -2062500 0
-2062500 -2062500 0
-2062500 -2062500 0
-2062500 -2062500 0
-2062500 -2062500 0
-2062500 -2062500 0
-2062500 -2062500 0
-2062500 -2062500 0
-2062500 -2062500 0
-2062500 -2062500 0
-2062500 -2062500 0
-2062500 -2062500 0
-2062500 -2062500 0
-2062500 -2062500 0
-2062500 -2062500 0
-2062500 -2062500 0
-2062500 -2062500 0
-2062500 -2062500 0
-2062500 -2062500 0
-2062500 -2062500 0
-2062500 -2062500 0
-2062500 -2062500 0
-2062500 -2062500 0
-2062500 -2062500 0
-2062500 -2062500 0
-2062500 -2062500 0
-2062500 -2062500 0
-2062500 -2062500 0
-2062500 -2062500 0
-2062500 -2062500 0
-2062500 -2062500 0
-2062500 -2062500 0
-2062500 -2062500 0
-2062500 -2062500 0
-2062500 -2062500 0
-2062500 -2062500 0
-2062500 -2062500 0
-2062500 -2062500 0
-2062500 -2062500 0
-2062500 -2062500 0
-2062500 -2062500 0
-2062500 -2062500 0
-2062500 -2062500 0
-2062500 -2062500 0
-2062500 -2062500 0
-2062500 -2062500 0
-2062500 -2062500 0
-2062500 -2062500 0
-2062500 -2062500 0
-2062500 -2062500 0
-2062500 -2062500 0
-2062500 -2062500 0
-2062500 -2062500 0
-2062500 -2062500 0
-2062500 -2062500 0
-2062500 -2062500 0
-2062500 -2062500 0
-2062500 -2062500 0
-2062500 -2062500 0
-2062500 -2062500 0
-2062500 -2062500 0
-2062500 -2062500 0
-2062500 -2062500 0
-2062500 -2062500 0
-2062500 -2062500 0
-2062500 -2062500 0
-2062500 -2062500 0
-2062500 -2062500 0
-2062500 -2062500 0
-2062500 -2062500 0
-2062500 -2062500 0
-2062500 -2062500 0
-2062500 -2062500 0
-2062500 -2062500 0
-2062500 -2062500 0
-2062500 -2062500 0
-2062500 -2062500 0
-2062500 -2062500 0
-2062500 -2062500 0
-1718750 -1718750 0
-1750000 -1750000 0
-1781250 -1781250 0
-1906250 -1906250 0
-1812500 -1812500 0
-1875000 -1875000 0
-1750000 -1750000 0
-1812500 -1812500 0
-1875000 -1875000 0
-1968750 -1968750 0
-2000000 -2000000 0
-2093750 -2093750 0
-2250000 -2250000 0
-2406250 -2406250 0
-2406250 -2406250 0
-2531250 -2531250 0
-2843750 -2843750 0
-3031250 -3031250 0
-3031250 -3031250 0
-2656250 -2656250 0
-2062500 -2062500 0
-1375000 -1375000 0
-437500 -437500 0
750000 750000 0
2343750 2343750 0
3875000 3875000 0
4875000 4875000 0
5250000 5250000 0
4781250 4781250 0
3250000 3250000 0
1062500 1062500 0
-1031250 -1031250 0
-2281250 -2281250 0
-2718750 -2718750 0
-2656250 -2656250 0
-2312500 -2312500 0
-2062500 -2062500 0
-2031250 -2031250 0
-2093750 -2093750 0
-2156250 -2156250 0
-2062500 -2062500 0
-2031250 -2031250 0
-1968750 -1968750 0
-1937500 -1937500 0
-2000000 -2000000 0
-2093750 -2093750 0
-2125000 -2125000 0
-2031250 -2031250 0
-2156250 -2156250 0
-2093750 -2093750 0
-2062500 -2062500 0
-2093750 -2093750 0
-2062500 -2062500 0
-2031250 -2031250 0
-2062500 -2062500 0
-2062500 -2062500 0
-2156250 -2156250 0
-2218750 -2218750 0
-2093750 -2093750 0
-2031250 -2031250 0
-1906250 -1906250 0
-2000000 -2000000 0
-2000000 -2000000 0
-2062500 -2062500 0
-2125000 -2125000 0
-2093750 -2093750 0
-2125000 -2125000 0
-2156250 -2156250 0
-2218750 -2218750 0
-2218750 -2218750 0
-2125000 -2125000 0
-2062500 -2062500 0
-2062500 -2062500 0
-2062500 -2062500 0
-2125000 -2125000 0
-2187500 -2187500 0
-2031250 -2031250 0
-2031250 -2031250 0
-2062500 -2062500 0
-2062500 -2062500 0
-2093750 -2093750 0
-2093750 -2093750 0
-2125000 -2125000 0
-2062500 -2062500 0
-2125000 -2125000 0
-2187500 -2187500 0
-2218750 -2218750 0
-2187500 -2187500 0
-2156250 -2156250 0
-2062500 -2062500 0
-2000000 -2000000 0
-2093750 -2093750 0
-2062500 -2062500 0
-2156250 -2156250 0
-2062500 -2062500 0
-2093750 -2093750 0
-2093750 -2093750 0
-2156250 -2156250 0
-2156250 -2156250 0
-2218750 -2218750 0
-2125000 -2125000 0
-2125000 -2125000 0
-2093750 -2093750 0
-2062500 -2062500 0
-2187500 -2187500 0
-2187500 -2187500 0
-2156250 -2156250 0
-2093750 -2093750 0
-2093750 -2093750 0
-2093750 -2093750 0
-2187500 -2187500 0
-2218750 -2218750 0
-2218750 -2218750 0
-2156250 -2156250 0
-2156250 -2156250 0
-2093750 -2093750 0
-2187500 -2187500 0
-2250000 -2250000 0
-2250000 -2250000 0
-2250000 -2250000 0
-2281250 -2281250 0
-2250000 -2250000 0
-2312500 -2312500 0
-2406250 -2406250 0
-2312500 -2312500 0
-2250000 -2250000 0
-2218750 -2218750 0
-2250000 -2250000 0
-2343750 -2343750 0
-2343750 -2343750 0
-2281250 -2281250 0
-2281250 -2281250 0
-2250000 -2250000 0
-2250000 -2250000 0
-2281250 -2281250 0
-2312500 -2312500 0
-2218750 -2218750 0
-2062500 -2062500 0
-2031250 -2031250 0
-2031250 -2031250 0
-2093750 -2093750 0
-2125000 -2125000 0
-1968750 -1968750 0
-1875000 -1875000 0
-1875000 -1875000 0
-1812500 -1812500 0
-1843750 -1843750 0
-1812500 -1812500 0
-1781250 -1781250 0
-1718750 -1718750 0
-1593750 -1593750 0
-1562500 -1562500 0
-1562500 -1562500 0
-1656250 -1656250 0
-1593750 -1593750 0
-1531250 -1531250 0
-1437500 -1437500 0
-1531250 -1531250 0
-1531250 -1531250 0
-1593750 -1593750 0
-1593750 -1593750 0
-1500000 -1500000 0
-1562500 -1562500 0
-1593750 -1593750 0
-1531250 -1531250 0
-1593750 -1593750 0
-1562500 -1562500 0
-1562500 -1562500 0
-1656250 -1656250 0
-1625000 -1625000 0
-1625000 -1625000 0
-1656250 -1656250 0
-1687500 -1687500 0
-1656250 -1656250 0
-1625000 -1625000 0
-1718750 -1718750 0
-1750000 -1750000 0
-1812500 -1812500 0
-1718750 -1718750 0
-1687500 -1687500 0
-1625000 -1625000 0
-1750000 -1750000 0
-1750000 -1750000 0
-1781250 -1781250 0
-1718750 -1718750 0
-1718750 -1718750 0
-1656250 -1656250 0
-1687500 -1687500 0
-1781250 -1781250 0
-1812500 -1812500 0
-1750000 -1750000 0
-1718750 -1718750 0
-1781250 -1781250 0
-1750000 -1750000 0
-1875000 -1875000 0
-1875000 -1875000 0
-1906250 -1906250 0
-1843750 -1843750 0
-1875000 -1875000 0
-1937500 -1937500 0
-1937500 -1937500 0
-1906250 -1906250 0
-1843750 -1843750 0
-1781250 -1781250 0
-1781250 -1781250 0
-1812500 -1812500 0
-1843750 -1843750 0
-1937500 -1937500 0
-1812500 -1812500 0
-1843750 -1843750 0
-1875000 -1875000 0
-1906250 -1906250 0
-1937500 -1937500 0
-2031250 -2031250 0
-1937500 -1937500 0
-1875000 -1875000 0
-1812500 -1812500 0
-1937500 -1937500 0
-2031250 -2031250 0
-2062500 -2062500 0
-1968750 -1968750 0
-1875000 -1875000 0
-1906250 -1906250 0
-1937500 -1937500 0
-2000000 -2000000 0
-2062500 -2062500 0
-2031250 -2031250 0
-1968750 -1968750 0
-1937500 -1937500 0
-1906250 -1906250 0
-1906250 -1906250 0
-1937500 -1937500 0
-1875000 -1875000 0
-1906250 -1906250 0
-1812500 -1812500 0
-1875000 -1875000 0
-1875000 -1875000 0
-1906250 -1906250 0
-1906250 -1906250 0
-1812500 -1812500 0
-1750000 -1750000 0
-1843750 -1843750 0
-1906250 -1906250 0
-1968750 -1968750 0
-1906250 -1906250 0
-1843750 -1843750 0
-1812500 -1812500 0
-1750000 -1750000 0
-1687500 -1687500 0
-1718750 -1718750 0
-1718750 -1718750 0
-1687500 -1687500 0
-1562500 -1562500 0
-1562500 -1562500 0
-1593750 -1593750 0
-1406250 -1406250 0
-1375000 -1375000 0
-1281250 -1281250 0
-1250000 -1250000 0
-1281250 -1281250 0
-1343750 -1343750 0
-1437500 -1437500 0
-1375000 -1375000 0
-1406250 -1406250 0
-1406250 -1406250 0
-1406250 -1406250 0
-1437500 -1437500 0
-1468750 -1468750 0
-1500000 -1500000 0
-1468750 -1468750 0
-1375000 -1375000 0
-1312500 -1312500 0
-1281250 -1281250 0
-1531250 -1531250 0
-1781250 -1781250 0
-1781250 -1781250 0
-1875000 -1875000 0
-1937500 -1937500 0
-2062500 -2062500 0
-2062500 -2062500 0
-2062500 -2062500 0
-2062500 -2062500 0
-2062500 -2062500 0
-2062500 -2062500 0
-2062500 -2062500 0
-2062500 -2062500 0
-2062500 -2062500 0
-2062500 -2062500 0
-2062500 -2062500 0
-2062500 -2062500 0
-2062500 -2062500 0
-2062500 -2062500 0
-2062500 -2062500 0
-2062500 -2062500 0
-2062500 -2062500 0
-2062500 -2062500 0
-2062500 -2062500 0
-2062500 -2062500 0
-2062500 -2062500 0
-2062500 -2062500 0
-2062500 -2062500 0
-2062500 -2062500 0
-2062500 -2062500 0
-2062500 -2062500 0
-2062500 -2062500 0
-2062500 -2062500 0
-2062500 -2062500 0
-2062500 -2062500 0
-2062500 -2062500 0
-2062500 -2062500 0
-2062500 -2062500 0
-2062500 -2062500 0
-2062500 -2062500 0
-2062500 -2062500 0
-2062500 -2062500 0
-2062500 -2062500 0
-2062500 -2062500 0
-2062500 -2062500 0
-2062500 -2062500 0
-2062500 -2062500 0
-2062500 -2062500 0
-2062500 -2062500 0
-2062500 -2062500 0
-2062500 -2062500 0
-2062500 -2062500 0
-2062500 -2062500 0
-2062500 -2062500 0
-2062500 -2062500 0
-2062500 -2062500 0
-2062500 -2062500 0
-2062500 -2062500 0
-2062500 -2062500 0
-2062500 -2062500 0
-2062500 -2062500 0
-2062500 -2062500 0
-2062500 -2062500 0
-2062500 -2062500 0
-2062500 -2062500 0
-2062500 -2062500 0
-2062500 -2062500 0
-2062500 -2062500 0
-2062500 -2062500 0
-2062500 -2062500 0
-2062500 -2062500 0
-2062500 -2062500 0
-2062500 -2062500 0
-2062500 -2062500 0
-2062500 -2062500 0
-2062500 -2062500 0
-2062500 -2062500 0
-2062500 -2062500 0
-2062500 -2062500 0
-2062500 -2062500 0
-2062500 -2062500 0
-2062500 -2062500 0
-2062500 -2062500 0
-2062500 -2062500 0
-2062500 -2062500 0
-2062500 -2062500 0
-2062500 -2062500 0
-2062500 -2062500 0
-2062500 -2062500 0
-2062500 -2062500 0
-2062500 -2062500 0
-2062500 -2062500 0
-2062500 -2062500 0
-2062500 -2062500 0
-2062500 -2062500 0
-2062500 -2062500 0
-2062500 -2062500 0
-2062500 -2062500 0
-2062500 -2062500 0
-2062500 -2062500 0
-2062500 -2062500 0
-2062500 -2062500 0
-2062500 -2062500 0
-2062500 -2062500 0
-2062500 -2062500 0
-2062500 -2062500 0
-2062500 -2062500 0
-2062500 -2062500 0
-2062500 -2062500 0
-2062500 -2062500 0
-2062500 -2062500 0
-2062500 -2062500 0
-2062500 -2062500 0
-2062500 -2062500 0
-2062500 -2062500 0
-2062500 -2062500 0
-2062500 -2062500 0
-2062500 -2062500 0
-2062500 -2062500 0
-2062500 -2062500 0
-2062500 -2062500 0
-2062500 -2062500 0
-2062500 -2062500 0
-2062500 -2062500 0
-2062500 -2062500 0
-2062500 -2062500 0
-2062500 -2062500 0
-2062500 -2062500 0
-2062500 -2062500 0
-2062500 -2062500 0
-2062500 -2062500 0
-2062500 -2062500 0
-2062500 -2062500 0
-2062500 -2062500 0
-2062500 -2062500 0
-2062500 -2062500 0
-2062500 -2062500 0
-2062500 -2062500 0
-2062500 -2062500 0
-2062500 -2062500 0
-2062500 -2062500 0
-2062500 -2062500 0
-2062500 -2062500 0
-2062500 -2062500 0
-2062500 -2062500 0
-2062500 -2062500 0
-2062500 -2062500 0
-2062500 -2062500 0
-2062500 -2062500 0
-2062500 -2062500 0
-2062500 -2062500 0
-2062500 -2062500 0
-2062500 -2062500 0
-2062500 -2062500 0
-2062500 -2062500 0
-2062500 -2062500 0
-2062500 -2062500 0
-2062500 -2062500 0
-2062500 -2062500 0
-2062500 -2062500 0
-2062500 -2062500 0
-2062500 -2062500 0
-2062500 -2062500 0
-2062500 -2062500 0
-2062500 -2062500 0
-2062500 -2062500 0
-2062500 -2062500 0
-2062500 -2062500 0
-2062500 -2062500 0
-2062500 -2062500 0
-2062500 -2062500 0
-2062500 -2062500 0
-2062500 -2062500 0
-2062500 -2062500 0
-2062500 -2062500 0
-2062500 -2062500 0
-2062500 -2062500 0
-2062500 -2062500 0
-2062500 -2062500 0
-2062500 -2062500 0
-2062500 -2062500 0
-2062500 -2062500 0
-2062500 -2062500 0
-2062500 -2062500 0
-2062500 -2062500 0
-2062500 -2062500 0
-2062500 -2062500 0
-2062500 -2062500 0
-2062500 -2062500 0
-2062500 -2062500 0
-2062500 -2062500 0
-2062500 -2062500 0
-2062500 -2062500 0
-2062500 -2062500 0
-2062500 -2062500 0
-2062500 -2062500 0
-2062500 -2062500 0
-2062500 -2062500 0
-2062500 -2062500 0
-2062500 -2062500 0
-2062500 -2062500 0
-2062500 -2062500 0
-2062500 -2062500 0
-2062500 -2062500 0
-2062500 -2062500 0
-2062500 -2062500 0
-2062500 -2062500 0
-2062500 -2062500 0
-2062500 -2062500 0
-2062500 -2062500 0
-2062500 -2062500 0
-2062500 -2062500 0
-2062500 -2062500 0
-2062500 -2062500 0
-2062500 -2062500 0
-2062500 -2062500 0
-2062500 -2062500 0
-2062500 -2062500 0
-2062500 -2062500 0
-2062500 -2062500 0
-2062500 -2062500 0
-2062500 -2062500 0
-2062500 -2062500 0
-2062500 -2062500 0
-2062500 -2062500 0
-2062500 -2062500 0
-2062500 -2062500 0
-2062500 -2062500 0
-2062500 -2062500 0
-2062500 -2062500 0
-2062500 -2062500 0
-2062500 -2062500 0
-2062500 -2062500 0
-2062500 -2062500 0
-2062500 -2062500 0
-2062500 -2062500 0
-2062500 -2062500 0
-2062500 -2062500 0
-2062500 -2062500 0
-2062500 -2062500 0
-2062500 -2062500 0
-2062500 -2062500 0
-2062500 -2062500 0
-2062500 -2062500 0
-2062500 -2062500 0
-2062500 -2062500 0
-2062500 -2062500 0
-2062500 -2062500 0
-2062500 -2062500 0
-2062500 -2062500 0
-2062500 -2062500 0
-2062500 -2062500 0
-2062500 -2062500 0
-2062500 -2062500 0
-2062500 -2062500 0
-2062500 -2062500 0
-2062500 -2062500 0
-2062500 -2062500 0
-2062500 -2062500 0
-2062500 -2062500 0
-2062500 -2062500 0
-2062500 -2062500 0
-2062500 -2062500 0
-2062500 -2062500 0
-2062500 -2062500 0
-2062500 -2062500 0
-2062500 -2062500 0
-2062500 -2062500 0
-2062500 -2062500 0
-2062500 -2062500 0
-2062500 -2062500 0
-2062500 -2062500 0
-2062500 -2062500 0
-2062500 -2062500 0
-2062500 -2062500 0
-2062500 -2062500 0
-2062500 -2062500 0
-2062500 -2062500 0
-2062500 -2062500 0
-2062500 -2062500 0
-2062500 -2062500 0
-2062500 -2062500 0
-2062500 -2062500 0
-2062500 -2062500 0
-2062500 -2062500 0
-2062500 -2062500 0
-2062500 -2062500 0
-2062500 -2062500 0
-2062500 -2062500 0
-2062500 -2062500 0
-2062500 -2062500 0
-2062500 -2062500 0
-2062500 -2062500 0
-2062500 -2062500 0
-2062500 -2062500 0
-2062500 -2062500 0
-2062500 -2062500 0
-2062500 -2062500 0
-2062500 -2062500 0
-2062500 -2062500 0
-2062500 -2062500 0
-2062500 -2062500 0
-2062500 -2062500 0
-2062500 -2062500 0
-2062500 -2062500 0
-2062500 -2062500 0
-2062500 -2062500 0
-2062500 -2062500 0
-2062500 -2062500 0
-2062500 -2062500 0
-2062500 -2062500 0
-2062500 -2062500 0
-2062500 -2062500 0
-2062500 -2062500 0
-2062500 -2062500 0
-2062500 -2062500 0
-2062500 -2062500 0
-2062500 -2062500 0
-2062500 -2062500 0
-2062500 -2062500 0
-2062500 -2062500 0
-2062500 -2062500 0
-2062500 -2062500 0
-2062500 -2062500 0
-2062500 -2062500 0
-2062500 -2062500 0
-2062500 -2062500 0
-1718750 -1718750 0
-1750000 -1750000 0
-1781250 -1781250 0
-1906250 -1906250 0
-1812500 -1812500 0
-1875000 -1875000 0
-1750000 -1750000 0
-1812500 -1812500 0
-1875000 -1875000 0
-1968750 -1968750 0
-2000000 -2000000 0
-2093750 -2093750 0
-2250000 -2250000 0
-2406250 -2406250 0
-2406250 -2406250 0
-2531250 -2531250 0
-2843750 -2843750 0
-3031250 -3031250 0
-3031250 -3031250 0
-2656250 -2656250 0
-2062500 -2062500 0
-1375000 -1375000 0
-437500 -437500 0
750000 750000 0
2343750 2343750 0
3875000 3875000 0
4875000 4875000 0
5250000 5250000 0
4781250 4781250 0
3250000 3250000 0
1062500 1062500 0
-1031250 -1031250 0
-2281250 -2281250 0
-2718750 -2718750 0
-2656250 -2656250 0
-2312500 -2312500 0
-2062500 -2062500 0
-2031250 -2031250 0
-2093750 -2093750 0
-2156250 -2156250 0
-2062500 -2062500 0
-2031250 -2031250 0
-1968750 -1968750 0
-1937500 -1937500 0
-2000000 -2000000 0
-2093750 -2093750 0
-2125000 -2125000 0
-2031250 -2031250 0
-2156250 -2156250 0
-2093750 -2093750 0
-2062500 -2062500 0
-2093750 -2093750 0
-2062500 -2062500 0
-2031250 -2031250 0
-2062500 -2062500 0
-2062500 -2062500 0
-2156250 -2156250 0
-2218750 -2218750 0
-2093750 -2093750 0
-2031250 -2031250 0
-1906250 -1906250 0
-2000000 -2000000 0
-2000000 -2000000 0
-2062500 -2062500 0
-2125000 -2125000 0
-2093750 -2093750 0
-2125000 -2125000 0
-2156250 -2156250 0
-2218750 -2218750 0
-2218750 -2218750 0
-2125000 -2125000 0
-2062500 -2062500 0
-2062500 -2062500 0
-2062500 -2062500 0
-2125000 -2125000 0
-2187500 -2187500 0
-2031250 -2031250 0
-2031250 -2031250 0
-2062500 -2062500 0
-2062500 -2062500 0
-2093750 -2093750 0
-2093750 -2093750 0
-2125000 -2125000 0
-2062500 -2062500 0
-2125000 -2125000 0
-2187500 -2187500 0
-2218750 -2218750 0
-2187500 -2187500 0
-2156250 -2156250 0
-2062500 -2062500 0
-2000000 -2000000 0
-2093750 -2093750 0
-2062500 -2062500 0
-2156250 -2156250 0
-2062500 -2062500 0
-2093750 -2093750 0
-2093750 -2093750 0
-2156250 -2156250 0
-2156250 -2156250 0
-2218750 -2218750 0
-2125000 -2125000 0
-2125000 -2125000 0
-2093750 -2093750 0
-2062500 -2062500 0
-2187500 -2187500 0
-2187500 -2187500 0
-2156250 -2156250 0
-2093750 -2093750 0
-2093750 -2093750 0
-2093750 -2093750 0
-2187500 -2187500 0
-2218750 -2218750 0
-2218750 -2218750 0
-2156250 -2156250 0
-2156250 -2156250 0
-2093750 -2093750 0
-2187500 -2187500 0
-2250000 -2250000 0
-2250000 -2250000 0
-2250000 -2250000 0
-2281250 -2281250 0
-2250000 -2250000 0
-2312500 -2312500 0
-2406250 -2406250 0
-2312500 -2312500 0
-2250000 -2250000 0
-2218750 -2218750 0
-2250000 -2250000 0
-2343750 -2343750 0
-2343750 -2343750 0
-2281250 -2281250 0
-2281250 -2281250 0
-2250000 -2250000 0
-2250000 -2250000 0
-2281250 -2281250 0
-2312500 -2312500 0
-2218750 -2218750 0
-2062500 -2062500 0
-2031250 -2031250 0
-2031250 -2031250 0
-2093750 -2093750 0
-2125000 -2125000 0
-1968750 -1968750 0
-1875000 -1875000 0
-1875000 -1875000 0
-1812500 -1812500 0
-1843750 -1843750 0
-1812500 -1812500 0
-1781250 -1781250 0
-1718750 -1718750 0
-1593750 -1593750 0
-1562500 -1562500 0
-1562500 -1562500 0
-1656250 -1656250 0
-1593750 -1593750 0
-1531250 -1531250 0
-1437500 -1437500 0
-1531250 -1531250 0
-1531250 -1531250 0
-1593750 -1593750 0
-1593750 -1593750 0
-1500000 -1500000 0
-1562500 -1562500 0
-1593750 -1593750 0
-1531250 -1531250 0
-1593750 -1593750 0
-1562500 -1562500 0
-1562500 -1562500 0
-1656250 -1656250 0
-1625000 -1625000 0
-1625000 -1625000 0
-1656250 -1656250 0
-1687500 -1687500 0
-1656250 -1656250 0
-1625000 -1625000 0
-1718750 -1718750 0
-1750000 -1750000 0
-1812500 -1812500 0
-1718750 -1718750 0
-1687500 -1687500 0
-1625000 -1625000 0
-1750000 -1750000 0
-1750000 -1750000 0
-1781250 -1781250 0
-1718750 -1718750 0
-1718750 -1718750 0
-1656250 -1656250 0
-1687500 -1687500 0
-1781250 -1781250 0
-1812500 -1812500 0
-1750000 -1750000 0
-1718750 -1718750 0
-1781250 -1781250 0
-1750000 -1750000 0
-1875000 -1875000 0
-1875000 -1875000 0
-1906250 -1906250 0
-1843750 -1843750 0
-1875000 -1875000 0
-1937500 -1937500 0
-1937500 -1937500 0
-1906250 -1906250 0
-1843750 -1843750 0
-1781250 -1781250 0
-1781250 -1781250 0
-1812500 -1812500 0
-1843750 -1843750 0
-1937500 -1937500 0
-1812500 -1812500 0
-1843750 -1843750 0
-1875000 -1875000 0
-1906250 -1906250 0
-1937500 -1937500 0
-2031250 -2031250 0
-1937500 -1937500 0
-1875000 -1875000 0
-1812500 -1812500 0
-1937500 -1937500 0
-2031250 -2031250 0
-2062500 -2062500 0
-1968750 -1968750 0
-1875000 -1875000 0
-1906250 -1906250 0
-1937500 -1937500 0
-2000000 -2000000 0
-2062500 -2062500 0
-2031250 -2031250 0
-1968750 -1968750 0
-1937500 -1937500 0
-1906250 -1906250 0
-1906250 -1906250 0
-1937500 -1937500 0
-1875000 -1875000 0
-1906250 -1906250 0
-1812500 -1812500 0
-1875000 -1875000 0
-1875000 -1875000 0
-1906250 -1906250 0
-1906250 -1906250 0
-1812500 -1812500 0
-1750000 -1750000 0
-1843750 -1843750 0
-1906250 -1906250 0
-1968750 -1968750 0
-1906250 -1906250 0
-1843750 -1843750 0
-1812500 -1812500 0
-1750000 -1750000 0
-1687500 -1687500 0
-1718750 -1718750 0
-1718750 -1718750 0
-1687500 -1687500 0
-1562500 -1562500 0
-1562500 -1562500 0
-1593750 -1593750 0
-1406250 -1406250 0
-1375000 -1375000 0
-1281250 -1281250 0
-1250000 -1250000 0
-1281250 -1281250 0
-1343750 -1343750 0
-1437500 -1437500 0
-1375000 -1375000 0
-1406250 -1406250 0
-1406250 -1406250 0
-1406250 -1406250 0
-1437500 -1437500 0
-1468750 -1468750 0
-1500000 -1500000 0
-1468750 -1468750 0
-1375000 -1375000 0
-1312500 -1312500 0
-1281250 -1281250 0
-1531250 -1531250 0
-1781250 -1781250 0
-1781250 -1781250 0
-1875000 -1875000 0
-1937500 -1937500 0
-2062500 -2062500 0
-2062500 -2062500 0
-2062500 -2062500 0
-2062500 -2062500 0
-2062500 -2062500 0
-2062500 -2062500 0
-2062500 -2062500 0
-2062500 -2062500 0
-2062500 -2062500 0
-2062500 -2062500 0
-2062500 -2062500 0
-2062500 -2062500 0
-2062500 -2062500 0
-2062500 -2062500 0
-2062500 -2062500 0
-2062500 -2062500 0
-2062500 -2062500 0
-2062500 -2062500 0
-2062500 -2062500 0
-2062500 -2062500 0
-2062500 -2062500 0
-2062500 -2062500 0
-2062500 -2062500 0
-2062500 -2062500 0
-2062500 -2062500 0
-2062500 -2062500 0
-2062500 -2062500 0
-2062500 -2062500 0
-2062500 -2062500 0
-2062500 -2062500 0
-2062500 -2062500 0
-2062500 -2062500 0
-2062500 -2062500 0
-2062500 -2062500 0
-2062500 -2062500 0
-2062500 -2062500 0
-2062500 -2062500 0
-2062500 -2062500 0
-2062500 -2062500 0
-2062500 -2062500 0
-2062500 -2062500 0
-2062500 -2062500 0
-2062500 -2062500 0
-2062500 -2062500 0
-2062500 -2062500 0
-2062500 -2062500 0
-2062500 -2062500 0
-2062500 -2062500 0
-2062500 -2062500 0
-2062500 -2062500 0
-2062500 -2062500 0
-2062500 -2062500 0
-2062500 -2062500 0
-2062500 -2062500 0
-2062500 -2062500 0
-2062500 -2062500 0
-2062500 -2062500 0
-2062500 -2062500 0
-2062500 -2062500 0
-2062500 -2062500 0
-2062500 -2062500 0
-2062500 -2062500 0
-2062500 -2062500 0
-2062500 -2062500 0
-2062500 -2062500 0
-2062500 -2062500 0
-2062500 -2062500 0
-2062500 -2062500 0
-2062500 -2062500 0
-2062500 -2062500 0
-2062500 -2062500 0
-2062500 -2062500 0
-2062500 -2062500 0
-2062500 -2062500 0
-2062500 -2062500 0
-2062500 -2062500 0
-2062500 -2062500 0
-2062500 -2062500 0
-2062500 -2062500 0
-2062500 -2062500 0
-2062500 -2062500 0
-2062500 -2062500 0
-2062500 -2062500 0
-2062500 -2062500 0
-2062500 -2062500 0
-2062500 -2062500 0
-2062500 -2062500 0
-2062500 -2062500 0
-2062500 -2062500 0
-2062500 -2062500 0
-2062500 -2062500 0
-2062500 -2062500 0
-2062500 -2062500 0
-2062500 -2062500 0
-2062500 -2062500 0
-2062500 -2062500 0
-2062500 -2062500 0
-2062500 -2062500 0
-2062500 -2062500 0
-2062500 -2062500 0
-2062500 -2062500 0
-2062500 -2062500 0
-2062500 -2062500 0
-2062500 -2062500 0
-2062500 -2062500 0
-2062500 -2062500 0
-2062500 -2062500 0
-2062500 -2062500 0
-2062500 -2062500 0
-2062500 -2062500 0
-2062500 -2062500 0
-2062500 -2062500 0
-2062500 -2062500 0
-2062500 -2062500 0
-2062500 -2062500 0
-2062500 -2062500 0
-2062500 -2062500 0
-2062500 -2062500 0
-2062500 -2062500 0
-2062500 -2062500 0
-2062500 -2062500 0
-2062500 -2062500 0
-2062500 -2062500 0
-2062500 -2062500 0
-2062500 -2062500 0
-2062500 -2062500 0
-2062500 -2062500 0
-2062500 -2062500 0
-2062500 -2062500 0
-2062500 -2062500 0
-2062500 -2062500 0
-2062500 -2062500 0
-2062500 -2062500 0
-2062500 -2062500 0
-2062500 -2062500 0
-2062500 -2062500 0
-2062500 -2062500 0
-2062500 -2062500 0
-2062500 -2062500 0
-2062500 -2062500 0
-2062500 -2062500 0
-2062500 -2062500 0
-2062500 -2062500 0
-2062500 -2062500 0
-2062500 -2062500 0
-2062500 -2062500 0
-2062500 -2062500 0
-2062500 -2062500 0
-2062500 -2062500 0
-2062500 -2062500 0
-2062500 -2062500 0
-2062500 -2062500 0
-2062500 -2062500 0
-2062500 -2062500 0
-2062500 -2062500 0
-2062500 -2062500 0
-2062500 -2062500 0
-2062500 -2062500 0
-2062500 -2062500 0
-2062500 -2062500 0
-2062500 -2062500 0
-2062500 -2062500 0
-2062500 -2062500 0
-2062500 -2062500 0
-2062500 -2062500 0
-2062500 -2062500 0
-2062500 -2062500 0
-2062500 -2062500 0
-2062500 -2062500 0
-2062500 -2062500 0
-2062500 -2062500 0
-2062500 -2062500 0
-2062500 -2062500 0
-2062500 -2062500 0
-2062500 -2062500 0
-2062500 -2062500 0
-2062500 -2062500 0
-2062500 -2062500 0
-2062500 -2062500 0
-2062500 -2062500 0
-2062500 -2062500 0
-2062500 -2062500 0
-2062500 -2062500 0
-2062500 -2062500 0
-2062500 -2062500 0
-2062500 -2062500 0
-2062500 -2062500 0
-2062500 -2062500 0
-2062500 -2062500 0
-2062500 -2062500 0
-2062500 -2062500 0
-2062500 -2062500 0
-2062500 -2062500 0
-2062500 -2062500 0
-2062500 -2062500 0
-2062500 -2062500 0
-2062500 -2062500 0
-2062500 -2062500 0
-2062500 -2062500 0
-2062500 -2062500 0
-2062500 -2062500 0
-2062500 -2062500 0
-2062500 -2062500 0
-2062500 -2062500 0
-2062500 -2062500 0
-2062500 -2062500 0
-2062500 -2062500 0
-2062500 -2062500 0
-2062500 -2062500 0
-2062500 -2062500 0
-2062500 -2062500 0
-2062500 -2062500 0
-2062500 -2062500 0
-2062500 -2062500 0
-2062500 -2062500 0
-2062500 -2062500 0
-2062500 -2062500 0
-2062500 -2062500 0
-2062500 -2062500 0
-2062500 -2062500 0
-2062500 -2062500 0
-2062500 -2062500 0
-2062500 -2062500 0
-2062500 -2062500 0
-2062500 -2062500 0
-2062500 -2062500 0
-2062500 -2062500 0
-2062500 -2062500 0
-2062500 -2062500 0
-2062500 -2062500 0
-2062500 -2062500 0
-2062500 -2062500 0
-2062500 -2062500 0
-2062500 -2062500 0
-2062500 -2062500 0
-2062500 -2062500 0
-2062500 -2062500 0
-2062500 -2062500 0
-2062500 -2062500 0
-2062500 -2062500 0
-2062500 -2062500 0
-2062500 -2062500 0
-2062500 -2062500 0
-2062500 -2062500 0
-2062500 -2062500 0
-2062500 -2062500 0
-2062500 -2062500 0
-2062500 -2062500 0
-2062500 -2062500 0
-2062500 -2062500 0
-2062500 -2062500 0
-2062500 -2062500 0
-2062500 -2062500 0
-2062500 -2062500 0
-2062500 -2062500 0
-2062500 -2062500 0
-2062500 -2062500 0
-2062500 -2062500 0
-2062500 -2062500 0
-2062500 -2062500 0
-2062500 -2062500 0
-2062500 -2062500 0
-2062500 -2062500 0
-2062500 -2062500 0
-2062500 -2062500 0
-2062500 -2062500 0
-2062500 -2062500 0
-2062500 -2062500 0
-2062500 -2062500 0
-2062500 -2062500 0
-2062500 -2062500 0
-2062500 -2062500 0
-2062500 -2062500 0
-2062500 -2062500 0
-2062500 -2062500 0
-2062500 -2062500 0
-2062500 -2062500 0
-2062500 -2062500 0
-2062500 -2062500 0
-2062500 -2062500 0
-2062500 -2062500 0
-2062500 -2062500 0
-2062500 -2062500 0
-2062500 -2062500 0
-2062500 -2062500 0
-2062500 -2062500 0
-2062500 -2062500 0
-2062500 -2062500 0
-2062500 -2062500 0
-2062500 -2062500 0
-2062500 -2062500 0
-2062500 -2062500 0
-2062500 -2062500 0
-2062500 -2062500 0
-2062500 -2062500 0
-2062500 -2062500 0
-2062500 -2062500 0
-2062500 -2062500 0
-2062500 -2062500 0
-2062500 -2062500 0
-2062500 -2062500 0
-2062500 -2062500 0
-2062500 -2062500 0
-2062500 -2062500 0
-2062500 -2062500 0
-2062500 -2062500 0
-2062500 -2062500 0
-2062500 -2062500 0
-2062500 -2062500 0
-2062500 -2062500 0
-2062500 -2062500 0
-2062500 -2062500 0
-2062500 -2062500 0
-2062500 -2062500 0
-2062500 -2062500 0
-2062500 -2062500 0
-2062500 -2062500 0
-2062500 -2062500 0
-2062500 -2062500 0
-2062500 -2062500 0
-2062500 -2062500 0
-2062500 -2062500 0
-1718750 -1718750 0
-1750000 -1750000 0
-1781250 -1781250 0
-1906250 -1906250 0
-1812500 -1812500 0
-1875000 -1875000 0
-1750000 -1750000 0
-1812500 -1812500 0
-1875000 -1875000 0
-1968750 -1968750 0
-2000000 -2000000 0
-2093750 -2093750 0
-2250000 -2250000 0
-2406250 -2406250 0
-2406250 -2406250 0
-2531250 -2531250 0
-2843750 -2843750 0
-3031250 -3031250 0
-3031250 -3031250 0
-2656250 -2656250 0
-2062500 -2062500 0
-1375000 -1375000 0
-437500 -437500 0
750000 750000 0
2343750 2343750 0
3875000 3875000 0
4875000 4875000 0
5250000 5250000 0
4781250 4781250 0
3250000 3250000 0
1062500 1062500 0
-1031250 -1031250 0
-2281250 -2281250 0
-2718750 -2718750 0
-2656250 -2656250 0
-2312500 -2312500 0
-2062500 -2062500 0
-2031250 -2031250 0
-2093750 -2093750 0
-2156250 -2156250 0
-2062500 -2062500 0
-2031250 -2031250 0
-1968750 -1968750 0
-1937500 -1937500 0
-2000000 -2000000 0
-2093750 -2093750 0
-2125000 -2125000 0
-2031250 -2031250 0
-2156250 -2156250 0
-2093750 -2093750 0
-2062500 -2062500 0
-2093750 -2093750 0
-2062500 -2062500 0
-2031250 -2031250 0
-2062500 -2062500 0
-2062500 -2062500 0
-2156250 -2156250 0
-2218750 -2218750 0
-2093750 -2093750 0
-2031250 -2031250 0
-1906250 -1906250 0
-2000000 -2000000 0
-2000000 -2000000 0
-2062500 -2062500 0
-2125000 -2125000 0
-2093750 -2093750 0
-2125000 -2125000 0
-2156250 -2156250 0
-2218750 -2218750 0
-2218750 -2218750 0
-2125000 -2125000 0
-2062500 -2062500 0
-2062500 -2062500 0
-2062500 -2062500 0
-2125000 -2125000 0
-2187500 -2187500 0
-2031250 -2031250 0
-2031250 -2031250 0
-2062500 -2062500 0
-2062500 -2062500 0
-2093750 -2093750 0
-2093750 -2093750 0
-2125000 -2125000 0
-2062500 -2062500 0
-2125000 -2125000 0
-2187500 -2187500 0
-2218750 -2218750 0
-2187500 -2187500 0
-2156250 -2156250 0
-2062500 -2062500 0
-2000000 -2000000 0
-2093750 -2093750 0
-2062500 -2062500 0
-2156250 -2156250 0
-2062500 -2062500 0
-2093750 -2093750 0
-2093750 -2093750 0
-2156250 -2156250 0
-2156250 -2156250 0
-2218750 -2218750 0
-2125000 -2125000 0
-2125000 -2125000 0
-2093750 -2093750 0
-2062500 -2062500 0
-2187500 -2187500 0
-2187500 -2187500 0
-2156250 -2156250 0
-2093750 -2093750 0
-2093750 -2093750 0
-2093750 -2093750 0
-2187500 -2187500 0
-2218750 -2218750 0
-2218750 -2218750 0
-2156250 -2156250 0
-2156250 -2156250 0
-2093750 -2093750 0
-2187500 -2187500 0
-2250000 -2250000 0
-2250000 -2250000 0
-2250000 -2250000 0
-2281250 -2281250 0
-2250000 -2250000 0
-2312500 -2312500 0
-2406250 -2406250 0
-2312500 -2312500 0
-2250000 -2250000 0
-2218750 -2218750 0
-2250000 -2250000 0
-2343750 -2343750 0
-2343750 -2343750 0
-2281250 -2281250 0
-2281250 -2281250 0
-2250000 -2250000 0
-2250000 -2250000 0
-2281250 -2281250 0
-2312500 -2312500 0
-2218750 -2218750 0
-2062500 -2062500 0
-2031250 -2031250 0
-2031250 -2031250 0
-2093750 -2093750 0
-2125000 -2125000 0
-1968750 -1968750 0
-1875000 -1875000 0
-1875000 -1875000 0
-1812500 -1812500 0
-1843750 -1843750 0
-1812500 -1812500 0
-1781250 -1781250 0
-1718750 -1718750 0
-1593750 -1593750 0
-1562500 -1562500 0
-1562500 -1562500 0
-1656250 -1656250 0
-1593750 -1593750 0
-1531250 -1531250 0
-1437500 -1437500 0
-1531250 -1531250 0
-1531250 -1531250 0
-1593750 -1593750 0
-1593750 -1593750 0
-1500000 -1500000 0
-1562500 -1562500 0
-1593750 -1593750 0
-1531250 -1531250 0
-1593750 -1593750 0
-1562500 -1562500 0
-1562500 -1562500 0
-1656250 -1656250 0
-1625000 -1625000 0
-1625000 -1625000 0
-1656250 -1656250 0
-1687500 -1687500 0
-1656250 -1656250 0
-1625000 -1625000 0
-1718750 -1718750 0
-1750000 -1750000 0
-1812500 -1812500 0
-1718750 -1718750 0
-1687500 -1687500 0
-1625000 -1625000 0
-1750000 -1750000 0
-1750000 -1750000 0
-1781250 -1781250 0
-1718750 -1718750 0
-1718750 -1718750 0
-1656250 -1656250 0
-1687500 -1687500 0
-1781250 -1781250 0
-1812500 -1812500 0
-1750000 -1750000 0
-1718750 -1718750 0
-1781250 -1781250 0
-1750000 -1750000 0
-1875000 -1875000 0
-1875000 -1875000 0
-1906250 -1906250 0
-1843750 -1843750 0
-1875000 -1875000 0
-1937500 -1937500 0
-1937500 -1937500 0
-1906250 -1906250 0
-1843750 -1843750 0
-1781250 -1781250 0
-1781250 -1781250 0
-1812500 -1812500 0
-1843750 -1843750 0
-1937500 -1937500 0
-1812500 -1812500 0
-1843750 -1843750 0
-1875000 -1875000 0
-1906250 -1906250 0
-1937500 -1937500 0
-2031250 -2031250 0
-1937500 -1937500 0
-1875000 -1875000 0
-1812500 -1812500 0
-1937500 -1937500 0
-2031250 -2031250 0
-2062500 -2062500 0
-1968750 -1968750 0
-1875000 -1875000 0
-1906250 -1906250 0
-1937500 -1937500 0
-2000000 -2000000 0
-2062500 -2062500 0
-2031250 -2031250 0
-1968750 -1968750 0
-1937500 -1937500 0
-1906250 -1906250 0
-1906250 -1906250 0
-1937500 -1937500 0
-1875000 -1875000 0
-1906250 -1906250 0
-1812500 -1812500 0
-1875000 -1875000 0
-1875000 -1875000 0
-1906250 -1906250 0
-1906250 -1906250 0
-1812500 -1812500 0
-1750000 -1750000 0
-1843750 -1843750 0
-1906250 -1906250 0
-1968750 -1968750 0
-1906250 -1906250 0
-1843750 -1843750 0
-1812500 -1812500 0
-1750000 -1750000 0
-1687500 -1687500 0
-1718750 -1718750 0
-1718750 -1718750 0
-1687500 -1687500 0
-1562500 -1562500 0
-1562500 -1562500 0
-1593750 -1593750 0
-1406250 -1406250 0
-1375000 -1375000 0
-1281250 -1281250 0
-1250000 -1250000 0
-1281250 -1281250 0
-1343750 -1343750 0
-1437500 -1437500 0
-1375000 -1375000 0
-1406250 -1406250 0
-1406250 -1406250 0
-1406250 -1406250 0
-1437500 -1437500 0
-1468750 -1468750 0
-1500000 -1500000 0
-1468750 -1468750 0
-1375000 -1375000 0
-1312500 -1312500 0
-1281250 -1281250 0
-1531250 -1531250 0
-1781250 -1781250 0
-1781250 -1781250 0
-1875000 -1875000 0
-1937500 -1937500 0
-2062500 -2062500 0
-2062500 -2062500 0
-2062500 -2062500 0
-2062500 -2062500 0
-2062500 -2062500 0
-2062500 -2062500 0
-2062500 -2062500 0
-2062500 -2062500 0
-2062500 -2062500 0
-2062500 -2062500 0
-2062500 -2062500 0
-2062500 -2062500 0
-2062500 -2062500 0
-2062500 -2062500 0
-2062500 -2062500 0
-2062500 -2062500 0
-2062500 -2062500 0
-2062500 -2062500 0
-2062500 -2062500 0
-2062500 -2062500 0
-2062500 -2062500 0
-2062500 -2062500 0
-2062500 -2062500 0
-2062500 -2062500 0
-2062500 -2062500 0
-2062500 -2062500 0
-2062500 -2062500 0
-2062500 -2062500 0
-2062500 -2062500 0
-2062500 -2062500 0
-2062500 -2062500 0
-2062500 -2062500 0
-2062500 -2062500 0
-2062500 -2062500 0
-2062500 -2062500 0
-2062500 -2062500 0
-2062500 -2062500 0
-2062500 -2062500 0
-2062500 -2062500 0
-2062500 -2062500 0
-2062500 -2062500 0
-2062500 -2062500 0
-2062500 -2062500 0
-2062500 -2062500 0
-2062500 -2062500 0
-2062500 -2062500 0
-2062500 -2062500 0
-2062500 -2062500 0
-2062500 -2062500 0
-2062500 -2062500 0
-2062500 -2062500 0
-2062500 -2062500 0
-2062500 -2062500 0
-2062500 -2062500 0
-2062500 -2062500 0
-2062500 -2062500 0
-2062500 -2062500 0
-2062500 -2062500 0
-2062500 -2062500 0
-2062500 -2062500 0
-2062500 -2062500 0
-2062500 -2062500 0
-2062500 -2062500 0
-2062500 -2062500 0
-2062500 -2062500 0
-2062500 -2062500 0
-2062500 -2062500 0
-2062500 -2062500 0
-2062500 -2062500 0
-2062500 -2062500 0
-2062500 -2062500 0
-2062500 -2062500 0
-2062500 -2062500 0
-2062500 -2062500 0
-2062500 -2062500 0
-2062500 -2062500 0
-2062500 -2062500 0
-2062500 -2062500 0
-2062500 -2062500 0
-2062500 -2062500 0
-2062500 -2062500 0
-2062500 -2062500 0
-2062500 -2062500 0
-2062500 -2062500 0
-2062500 -2062500 0
-2062500 -2062500 0
-2062500 -2062500 0
-2062500 -2062500 0
-2062500 -2062500 0
-2062500 -2062500 0
-2062500 -2062500 0
-2062500 -2062500 0
-2062500 -2062500 0
-2062500 -2062500 0
-2062500 -2062500 0
-2062500 -2062500 0
-2062500 -2062500 0
-2062500 -2062500 0
-2062500 -2062500 0
-2062500 -2062500 0
-2062500 -2062500 0
-2062500 -2062500 0
-2062500 -2062500 0
-2062500 -2062500 0
-2062500 -2062500 0
-2062500 -2062500 0
-2062500 -2062500 0
-2062500 -2062500 0
-2062500 -2062500 0
-2062500 -2062500 0
-2062500 -2062500 0
-2062500 -2062500 0
-2062500 -2062500 0
-2062500 -2062500 0
-2062500 -2062500 0
-2062500 -2062500 0
-2062500 -2062500 0
-2062500 -2062500 0
-2062500 -2062500 0
-2062500 -2062500 0
-2062500 -2062500 0
-2062500 -2062500 0
-2062500 -2062500 0
-2062500 -2062500 0
-2062500 -2062500 0
-2062500 -2062500 0
-2062500 -2062500 0
-2062500 -2062500 0
-2062500 -2062500 0
-2062500 -2062500 0
-2062500 -2062500 0
-2062500 -2062500 0
-2062500 -2062500 0
-2062500 -2062500 0
-2062500 -2062500 0
-2062500 -2062500 0
-2062500 -2062500 0
-2062500 -2062500 0
-2062500 -2062500 0
-2062500 -2062500 0
-2062500 -2062500 0
-2062500 -2062500 0
-2062500 -2062500 0
-2062500 -2062500 0
-2062500 -2062500 0
-2062500 -2062500 0
-2062500 -2062500 0
-2062500 -2062500 0
-2062500 -2062500 0
-2062500 -2062500 0
-2062500 -2062500 0
-2062500 -2062500 0
-2062500 -2062500 0
-2062500 -2062500 0
-2062500 -2062500 0
-2062500 -2062500 0
-2062500 -2062500 0
-2062500 -2062500 0
-2062500 -2062500 0
-2062500 -2062500 0
-2062500 -2062500 0
-2062500 -2062500 0
-2062500 -2062500 0
-2062500 -2062500 0
-2062500 -2062500 0
-2062500 -2062500 0
-2062500 -2062500 0
-2062500 -2062500 0
-2062500 -2062500 0
-2062500 -2062500 0
-2062500 -2062500 0
-2062500 -2062500 0
-2062500 -2062500 0
-2062500 -2062500 0
-2062500 -2062500 0
-2062500 -2062500 0
-2062500 -2062500 0
-2062500 -2062500 0
-2062500 -2062500 0
-2062500 -2062500 0
-2062500 -2062500 0
-2062500 -2062500 0
-2062500 -2062500 0
-2062500 -2062500 0
-2062500 -2062500 0
-2062500 -2062500 0
-2062500 -2062500 0
-2062500 -2062500 0
-2062500 -2062500 0
-2062500 -2062500 0
-2062500 -2062500 0
-2062500 -2062500 0
-2062500 -2062500 0
-2062500 -2062500 0
-2062500 -2062500 0
-2062500 -2062500 0
-2062500 -2062500 0
-2062500 -2062500 0
-2062500 -2062500 0
-2062500 -2062500 0
-2062500 -2062500 0
-2062500 -2062500 0
-2062500 -2062500 0
-2062500 -2062500 0
-2062500 -2062500 0
-2062500 -2062500 0
-2062500 -2062500 0
-2062500 -2062500 0
-2062500 -2062500 0
-2062500 -2062500 0
-2062500 -2062500 0
-2062500 -2062500 0
-2062500 -2062500 0
-2062500 -2062500 0
-2062500 -2062500 0
-2062500 -2062500 0
-2062500 -2062500 0
-2062500 -2062500 0
-2062500 -2062500 0
-2062500 -2062500 0
-2062500 -2062500 0
-2062500 -2062500 0
-2062500 -2062500 0
-2062500 -2062500 0
-2062500 -2062500 0
-2062500 -2062500 0
-2062500 -2062500 0
-2062500 -2062500 0
-2062500 -2062500 0
-2062500 -2062500 0
-2062500 -2062500 0
-2062500 -2062500 0
-2062500 -2062500 0
-2062500 -2062500 0
-2062500 -2062500 0
-2062500 -2062500 0
-2062500 -2062500 0
-2062500 -2062500 0
-2062500 -2062500 0
-2062500 -2062500 0
-2062500 -2062500 0
-2062500 -2062500 0
-2062500 -2062500 0
-2062500 -2062500 0
-2062500 -2062500 0
-2062500 -2062500 0
-2062500 -2062500 0
-2062500 -2062500 0
-2062500 -2062500 0
-2062500 -2062500 0
-2062500 -2062500 0
-2062500 -2062500 0
-2062500 -2062500 0
-2062500 -2062500 0
-2062500 -2062500 0
-2062500 -2062500 0
-2062500 -2062500 0
-2062500 -2062500 0
-2062500 -2062500 0
-2062500 -2062500 0
-2062500 -2062500 0
-2062500 -2062500 0
-2062500 -2062500 0
-2062500 -2062500 0
-2062500 -2062500 0
-2062500 -2062500 0
-2062500 -2062500 0
-2062500 -2062500 0
-2062500 -2062500 0
-2062500 -2062500 0
-2062500 -2062500 0
-2062500 -2062500 0
-2062500 -2062500 0
-2062500 -2062500 0
-2062500 -2062500 0
-2062500 -2062500 0
-2062500 -2062500 0
-2062500 -2062500 0
-2062500 -2062500 0
-2062500 -2062500 0
-2062500 -2062500 0
-2062500 -2062500 0
-2062500 -2062500 0
-2062500 -2062500 0
-2062500 -2062500 0
-2062500 -2062500 0
-2062500 -2062500 0
-2062500 -2062500 0
-2062500 -2062500 0
-2062500 -2062500 0
-2062500 -2062500 0
-2062500 -2062500 0
-2062500 -2062500 0
-2062500 -2062500 0
-2062500 -2062500 0
-2062500 -2062500 0
-2062500 -2062500 0
-2062500 -2062500 0
-2062500 -2062500 0
-2062500 -2062500 0
-2062500 -2062500 0
-2062500 -2062500 0
-2062500 -2062500 0
-2062500 -2062500 0
-2062500 -2062500 0
-2062500 -2062500 0
-2062500 -2062500 0
-2062500 -2062500 0
-2062500 -2062500 0
-2062500 -2062500 0
-2062500 -2062500 0
-2062500 -2062500 0
-2062500 -2062500 0
-2062500 -2062500 0
-2062500 -2062500 0
-2062500 -2062500 0
-2062500 -2062500 0
-2062500 -2062500 0
-2062500 -2062500 0
-2062500 -2062500 0
-2062500 -2062500 0
-2062500 -2062500 0
-1718750 -1718750 0
-1750000 -1750000 0
-1781250 -1781250 0
-1906250 -1906250 0
-1812500 -1812500 0
-1875000 -1875000 0
-1750000 -1750000 0
-1812500 -1812500 0
-1875000 -1875000 0
-1968750 -1968750 0
-2000000 -2000000 0
-2093750 -2093750 0
-2250000 -2250000 0
-2406250 -2406250 0
-2406250 -2406250 0
-2531250 -2531250 0
-2843750 -2843750 0
-3031250 -3031250 0
-3031250 -3031250 0
-2656250 -2656250 0
-2062500 -2062500 0
-1375000 -1375000 0
-437500 -437500 0
750000 750000 0
2343750 2343750 0
3875000 3875000 0
4875000 4875000 0
5250000 5250000 0
4781250 4781250 0
3250000 3250000 0
1062500 1062500 0
-1031250 -1031250 0
-2281250 -2281250 0
-2718750 -2718750 0
-2656250 -2656250 0
-2312500 -2312500 0
-2062500 -2062500 0
-2031250 -2031250 0
-2093750 -2093750 0
-2156250 -2156250 0
-2062500 -2062500 0
-2031250 -2031250 0
-1968750 -1968750 0
-1937500 -1937500 0
-2000000 -2000000 0
-2093750 -2093750 0
-2125000 -2125000 0
-2031250 -2031250 0
-2156250 -2156250 0
-2093750 -2093750 0
-2062500 -2062500 0
-2093750 -2093750 0
-2062500 -2062500 0
-2031250 -2031250 0
-2062500 -2062500 0
-2062500 -2062500 0
-2156250 -2156250 0
-2218750 -2218750 0
-2093750 -2093750 0
-2031250 -2031250 0
-1906250 -1906250 0
-2000000 -2000000 0
-2000000 -2000000 0
-2062500 -2062500 0
-2125000 -2125000 0
-2093750 -2093750 0
-2125000 -2125000 0
-2156250 -2156250 0
-2218750 -2218750 0
-2218750 -2218750 0
-2125000 -2125000 0
-2062500 -2062500 0
-2062500 -2062500 0
-2062500 -2062500 0
-2125000 -2125000 0
-2187500 -2187500 0
-2031250 -2031250 0
-2031250 -2031250 0
-2062500 -2062500 0
-2062500 -2062500 0
-2093750 -2093750 0
-2093750 -2093750 0
-2125000 -2125000 0
-2062500 -2062500 0
-2125000 -2125000 0
-2187500 -2187500 0
-2218750 -2218750 0
-2187500 -2187500 0
-2156250 -2156250 0
-2062500 -2062500 0
-2000000 -2000000 0
-2093750 -2093750 0
-2062500 -2062500 0
-2156250 -2156250 0
-2062500 -2062500 0
-2093750 -2093750 0
-2093750 -2093750 0
-2156250 -2156250 0
-2156250 -2156250 0
-2218750 -2218750 0
-2125000 -2125000 0
-2125000 -2125000 0
-2093750 -2093750 0
-2062500 -2062500 0
-2187500 -2187500 0
-2187500 -2187500 0
-2156250 -2156250 0
-2093750 -2093750 0
-2093750 -2093750 0
-2093750 -2093750 0
-2187500 -2187500 0
-2218750 -2218750 0
-2218750 -2218750 0
-2156250 -2156250 0
-2156250 -2156250 0
-2093750 -2093750 0
-2187500 -2187500 0
-2250000 -2250000 0
-2250000 -2250000 0
-2250000 -2250000 0
-2281250 -2281250 0
-2250000 -2250000 0
-2312500 -2312500 0
-2406250 -2406250 0
-2312500 -2312500 0
-2250000 -2250000 0
-2218750 -2218750 0
-2250000 -2250000 0
-2343750 -2343750 0
-2343750 -2343750 0
-2281250 -2281250 0
-2281250 -2281250 0
-2250000 -2250000 0
-2250000 -2250000 0
-2281250 -2281250 0
-2312500 -2312500 0
-2218750 -2218750 0
-2062500 -2062500 0
-2031250 -2031250 0
-2031250 -2031250 0
-2093750 -2093750 0
-2125000 -2125000 0
-1968750 -1968750 0
-1875000 -1875000 0
-1875000 -1875000 0
-1812500 -1812500 0
-1843750 -1843750 0
-1812500 -1812500 0
-1781250 -1781250 0
-1718750 -1718750 0
-1593750 -1593750 0
-1562500 -1562500 0
-1562500 -1562500 0
-1656250 -1656250 0
-1593750 -1593750 0
-1531250 -1531250 0
-1437500 -1437500 0
-1531250 -1531250 0
-1531250 -1531250 0
-1593750 -1593750 0
-1593750 -1593750 0
-1500000 -1500000 0
-1562500 -1562500 0
-1593750 -1593750 0
-1531250 -1531250 0
-1593750 -1593750 0
-1562500 -1562500 0
-1562500 -1562500 0
-1656250 -1656250 0
-1625000 -1625000 0
-1625000 -1625000 0
-1656250 -1656250 0
-1687500 -1687500 0
-1656250 -1656250 0
-1625000 -1625000 0
-1718750 -1718750 0
-1750000 -1750000 0
-1812500 -1812500 0
-1718750 -1718750 0
-1687500 -1687500 0
-1625000 -1625000 0
-1750000 -1750000 0
-1750000 -1750000 0
-1781250 -1781250 0
-1718750 -1718750 0
-1718750 -1718750 0
-1656250 -1656250 0
-1687500 -1687500 0
-1781250 -1781250 0
-1812500 -1812500 0
-1750000 -1750000 0
-1718750 -1718750 0
-1781250 -1781250 0
-1750000 -1750000 0
-1875000 -1875000 0
-1875000 -1875000 0
-1906250 -1906250 0
-1843750 -1843750 0
-1875000 -1875000 0
-1937500 -1937500 0
-1937500 -1937500 0
-1906250 -1906250 0
-1843750 -1843750 0
-1781250 -1781250 0
-1781250 -1781250 0
-1812500 -1812500 0
-1843750 -1843750 0
-1937500 -1937500 0
-1812500 -1812500 0
-1843750 -1843750 0
-1875000 -1875000 0
-1906250 -1906250 0
-1937500 -1937500 0
-2031250 -2031250 0
-1937500 -1937500 0
-1875000 -1875000 0
-1812500 -1812500 0
-1937500 -1937500 0
-2031250 -2031250 0
-2062500 -2062500 0
-1968750 -1968750 0
-1875000 -1875000 0
-1906250 -1906250 0
-1937500 -1937500 0
-2000000 -2000000 0
-2062500 -2062500 0
-2031250 -2031250 0
-1968750 -1968750 0
-1937500 -1937500 0
-1906250 -1906250 0
-1906250 -1906250 0
-1937500 -1937500 0
-1875000 -1875000 0
-1906250 -1906250 0
-1812500 -1812500 0
-1875000 -1875000 0
-1875000 -1875000 0
-1906250 -1906250 0
-1906250 -1906250 0
-1812500 -1812500 0
-1750000 -1750000 0
-1843750 -1843750 0
-1906250 -1906250 0
-1968750 -1968750 0
-1906250 -1906250 0
-1843750 -1843750 0
-1812500 -1812500 0
-1750000 -1750000 0
-1687500 -1687500 0
-1718750 -1718750 0
-1718750 -1718750 0
-1687500 -1687500 0
-1562500 -1562500 0
-1562500 -1562500 0
-1593750 -1593750 0
-1406250 -1406250 0
-1375000 -1375000 0
-1281250 -1281250 0
-1250000 -1250000 0
-1281250 -1281250 0
-1343750 -1343750 0
-1437500 -1437500 0
-1375000 -1375000 0
-1406250 -1406250 0
-1406250 -1406250 0
-1406250 -1406250 0
-1437500 -1437500 0
-1468750 -1468750 0
-1500000 -1500000 0
-1468750 -1468750 0
-1375000 -1375000 0
-1312500 -1312500 0
-1281250 -1281250 0
-1531250 -1531250 0
-1781250 -1781250 0
-1781250 -1781250 0
-1875000 -1875000 0
-1937500 -1937500 0
-2062500 -2062500 0
-2062500 -2062500 0
-2062500 -2062500 0
-2062500 -2062500 0
-2062500 -2062500 0
-2062500 -2062500 0
-2062500 -2062500 0
-2062500 -2062500 0
-2062500 -2062500 0
-2062500 -2062500 0
-2062500 -2062500 0
-2062500 -2062500 0
-2062500 -2062500 0
-2062500 -2062500 0
-2062500 -2062500 0
-2062500 -2062500 0
-2062500 -2062500 0
-2062500 -2062500 0
-2062500 -2062500 0
-2062500 -2062500 0
-2062500 -2062500 0
-2062500 -2062500 0
-2062500 -2062500 0
-2062500 -2062500 0
-2062500 -2062500 0
-2062500 -2062500 0
-2062500 -2062500 0
-2062500 -2062500 0
-2062500 -2062500 0
-2062500 -2062500 0
-2062500 -2062500 0
-2062500 -2062500 0
-2062500 -2062500 0
-2062500 -2062500 0
-2062500 -2062500 0
-2062500 -2062500 0
-2062500 -2062500 0
-2062500 -2062500 0
-2062500 -2062500 0
-2062500 -2062500 0
-2062500 -2062500 0
-2062500 -2062500 0
-2062500 -2062500 0
-2062500 -2062500 0
-2062500 -2062500 0
-2062500 -2062500 0
-2062500 -2062500 0
-2062500 -2062500 0
-2062500 -2062500 0
-2062500 -2062500 0
-2062500 -2062500 0
-2062500 -2062500 0
-2062500 -2062500 0
-2062500 -2062500 0
-2062500 -2062500 0
-2062500 -2062500 0
-2062500 -2062500 0
-2062500 -2062500 0
-2062500 -2062500 0
-2062500 -2062500 0
-2062500 -2062500 0
-2062500 -2062500 0
-2062500 -2062500 0
-2062500 -2062500 0
-2062500 -2062500 0
-2062500 -2062500 0
-2062500 -2062500 0
-2062500 -2062500 0
-2062500 -2062500 0
-2062500 -2062500 0
-2062500 -2062500 0
-2062500 -2062500 0
-2062500 -2062500 0
-2062500 -2062500 0
-2062500 -2062500 0
-2062500 -2062500 0
-2062500 -2062500 0
-2062500 -2062500 0
-2062500 -2062500 0
-2062500 -2062500 0
-2062500 -2062500 0
-2062500 -2062500 0
-2062500 -2062500 0
-2062500 -2062500 0
-2062500 -2062500 0
-2062500 -2062500 0
-2062500 -2062500 0
-2062500 -2062500 0
-2062500 -2062500 0
-2062500 -2062500 0
-2062500 -2062500 0
-2062500 -2062500 0
-2062500 -2062500 0
-2062500 -2062500 0
-2062500 -2062500 0
-2062500 -2062500 0
-2062500 -2062500 0
-2062500 -2062500 0
-2062500 -2062500 0
-2062500 -2062500 0
-2062500 -2062500 0
-2062500 -2062500 0
-2062500 -2062500 0
-2062500 -2062500 0
-2062500 -2062500 0
-2062500 -2062500 0
-2062500 -2062500 0
-2062500 -2062500 0
-2062500 -2062500 0
-2062500 -2062500 0
-2062500 -2062500 0
-2062500 -2062500 0
-2062500 -2062500 0
-2062500 -2062500 0
-2062500 -2062500 0
-2062500 -2062500 0
-2062500 -2062500 0
-2062500 -2062500 0
-2062500 -2062500 0
-2062500 -2062500 0
-2062500 -2062500 0
-2062500 -2062500 0
-2062500 -2062500 0
-2062500 -2062500 0
-2062500 -2062500 0
-2062500 -2062500 0
-2062500 -2062500 0
-2062500 -2062500 0
-2062500 -2062500 0
-2062500 -2062500 0
-2062500 -2062500 0
-2062500 -2062500 0
-2062500 -2062500 0
-2062500 -2062500 0
-2062500 -2062500 0
-2062500 -2062500 0
-2062500 -2062500 0
-2062500 -2062500 0
-2062500 -2062500 0
-2062500 -2062500 0
-2062500 -2062500 0
-2062500 -2062500 0
-2062500 -2062500 0
-2062500 -2062500 0
-2062500 -2062500 0
-2062500 -2062500 0
-2062500 -2062500 0
-2062500 -2062500 0
-2062500 -2062500 0
-2062500 -2062500 0
-2062500 -2062500 0
-2062500 -2062500 0
-2062500 -2062500 0
-2062500 -2062500 0
-2062500 -2062500 0
-2062500 -2062500 0
-2062500 -2062500 0
-2062500 -2062500 0
-2062500 -2062500 0
-2062500 -2062500 0
-2062500 -2062500 0
-2062500 -2062500 0
-2062500 -2062500 0
-2062500 -2062500 0
-2062500 -2062500 0
-2062500 -2062500 0
-2062500 -2062500 0
-2062500 -2062500 0
-2062500 -2062500 0
-2062500 -2062500 0
-2062500 -2062500 0
-2062500 -2062500 0
-2062500 -2062500 0
-2062500 -2062500 0
-2062500 -2062500 0
-2062500 -2062500 0
-2062500 -2062500 0
-2062500 -2062500 0
-2062500 -2062500 0
-2062500 -2062500 0
-2062500 -2062500 0
-2062500 -2062500 0
-2062500 -2062500 0
-2062500 -2062500 0
-2062500 -2062500 0
-2062500 -2062500 0
-2062500 -2062500 0
-2062500 -2062500 0
-2062500 -2062500 0
-2062500 -2062500 0
-2062500 -2062500 0
-2062500 -2062500 0
-2062500 -2062500 0
-2062500 -2062500 0
-2062500 -2062500 0
-2062500 -2062500 0
-2062500 -2062500 0
-2062500 -2062500 0
-2062500 -2062500 0
-2062500 -2062500 0
-2062500 -2062500 0
-2062500 -2062500 0
-2062500 -2062500 0
-2062500 -2062500 0
-2062500 -2062500 0
-2062500 -2062500 0
-2062500 -2062500 0
-2062500 -2062500 0
-2062500 -2062500 0
-2062500 -2062500 0
-2062500 -2062500 0
-2062500 -2062500 0
-2062500 -2062500 0
-2062500 -2062500 0
-2062500 -2062500 0
-2062500 -2062500 0
-2062500 -2062500 0
-2062500 -2062500 0
-2062500 -2062500 0
-2062500 -2062500 0
-2062500 -2062500 0
-2062500 -2062500 0
-2062500 -2062500 0
-2062500 -2062500 0
-2062500 -2062500 0
-2062500 -2062500 0
-2062500 -2062500 0
-2062500 -2062500 0
-2062500 -2062500 0
-2062500 -2062500 0
-2062500 -2062500 0
-2062500 -2062500 0
-2062500 -2062500 0
-2062500 -2062500 0
-2062500 -2062500 0
-2062500 -2062500 0
-2062500 -2062500 0
-2062500 -2062500 0
-2062500 -2062500 0
-2062500 -2062500 0
-2062500 -2062500 0
-2062500 -2062500 0
-2062500 -2062500 0
-2062500 -2062500 0
-2062500 -2062500 0
-2062500 -2062500 0
-2062500 -2062500 0
-2062500 -2062500 0
-2062500 -2062500 0
-2062500 -2062500 0
-2062500 -2062500 0
-2062500 -2062500 0
-2062500 -2062500 0
-2062500 -2062500 0
-2062500 -2062500 0
-2062500 -2062500 0
-2062500 -2062500 0
-2062500 -2062500 0
-2062500 -2062500 0
-2062500 -2062500 0
-2062500 -2062500 0
-2062500 -2062500 0
-2062500 -2062500 0
-2062500 -2062500 0
-2062500 -2062500 0
-2062500 -2062500 0
-2062500 -2062500 0
-2062500 -2062500 0
-2062500 -2062500 0
-2062500 -2062500 0
-2062500 -2062500 0
-2062500 -2062500 0
-2062500 -2062500 0
-2062500 -2062500 0
-2062500 -2062500 0
-2062500 -2062500 0
-2062500 -2062500 0
-2062500 -2062500 0
-2062500 -2062500 0
-2062500 -2062500 0
-2062500 -2062500 0
-2062500 -2062500 0
-2062500 -2062500 0
-2062500 -2062500 0
-2062500 -2062500 0
-2062500 -2062500 0
-2062500 -2062500 0
-2062500 -2062500 0
-2062500 -2062500 0
-2062500 -2062500 0
-2062500 -2062500 0
-2062500 -2062500 0
-2062500 -2062500 0
-2062500 -2062500 0
-2062500 -2062500 0
-2062500 -2062500 0
-2062500 -2062500 0
-2062500 -2062500 0
-2062500 -2062500 0
-2062500 -2062500 0
-2062500 -2062500 0
-2062500 -2062500 0
-2062500 -2062500 0
-2062500 -2062500 0
-2062500 -2062500 0
-2062500 -2062500 0
-2062500 -2062500 0
-2062500 -2062500 0
-2062500 -2062500 0
-2062500 -2062500 0
-2062500 -2062500 0
-2062500 -2062500 0
-2062500 -2062500 0
-2062500 -2062500 0
-2062500 -2062500 0
-2062500 -2062500 0
-2062500 -2062500 0
-2062500 -2062500 0
-2062500 -2062500 0
-2062500 -2062500 0
-2062500 -2062500 0
-2062500 -2062500 0
-1718750 -1718750 0
-1750000 -1750000 0
-1781250 -1781250 0
-1906250 -1906250 0
-1812500 -1812500 0
-1875000 -1875000 0
-1750000 -1750000 0
-1812500 -1812500 0
-1875000 -1875000 0
-1968750 -1968750 0
-2000000 -2000000 0
-2093750 -2093750 0
-2250000 -2250000 0
-2406250 -2406250 0
-2406250 -2406250 0
-2531250 -2531250 0
-2843750 -2843750 0
-3031250 -3031250 0
-3031250 -3031250 0
-2656250 -2656250 0
-2062500 -2062500 0
-1375000 -1375000 0
-437500 -437500 0
750000 750000 0
2343750 2343750 0
3875000 3875000 0
4875000 4875000 0
5250000 5250000 0
4781250 4781250 0
3250000 3250000 0
1062500 1062500 0
-1031250 -1031250 0
-2281250 -2281250 0
-2718750 -2718750 0
-2656250 -2656250 0
-2312500 -2312500 0
-2062500 -2062500 0
-2031250 -2031250 0
-2093750 -2093750 0
-2156250 -2156250 0
-2062500 -2062500 0
-2031250 -2031250 0
-1968750 -1968750 0
-1937500 -1937500 0
-2000000 -2000000 0
-2093750 -2093750 0
-2125000 -2125000 0
-2031250 -2031250 0
-2156250 -2156250 0
-2093750 -2093750 0
-2062500 -2062500 0
-2093750 -2093750 0
-2062500 -2062500 0
-2031250 -2031250 0
-2062500 -2062500 0
-2062500 -2062500 0
-2156250 -2156250 0
-2218750 -2218750 0
-2093750 -2093750 0
-2031250 -2031250 0
-1906250 -1906250 0
-2000000 -2000000 0
-2000000 -2000000 0
-2062500 -2062500 0
-2125000 -2125000 0
-2093750 -2093750 0
-2125000 -2125000 0
-2156250 -2156250 0
-2218750 -2218750 0
-2218750 -2218750 0
-2125000 -2125000 0
-2062500 -2062500 0
-2062500 -2062500 0
-2062500 -2062500 0
-2125000 -2125000 0
-2187500 -2187500 0
-2031250 -2031250 0
-2031250 -2031250 0
-2062500 -2062500 0
-2062500 -2062500 0
-2093750 -2093750 0
-2093750 -2093750 0
-2125000 -2125000 0
-2062500 -2062500 0
-2125000 -2125000 0
-2187500 -2187500 0
-2218750 -2218750 0
-2187500 -2187500 0
-2156250 -2156250 0
-2062500 -2062500 0
-2000000 -2000000 0
-2093750 -2093750 0
-2062500 -2062500 0
-2156250 -2156250 0
-2062500 -2062500 0
-2093750 -2093750 0
-2093750 -2093750 0
-2156250 -2156250 0
-2156250 -2156250 0
-2218750 -2218750 0
-2125000 -2125000 0
-2125000 -2125000 0
-2093750 -2093750 0
-2062500 -2062500 0
-2187500 -2187500 0
-2187500 -2187500 0
-2156250 -2156250 0
-2093750 -2093750 0
-2093750 -2093750 0
-2093750 -2093750 0
-2187500 -2187500 0
-2218750 -2218750 0
-2218750 -2218750 0
-2156250 -2156250 0
-2156250 -2156250 0
-2093750 -2093750 0
-2187500 -2187500 0
-2250000 -2250000 0
-2250000 -2250000 0
-2250000 -2250000 0
-2281250 -2281250 0
-2250000 -2250000 0
-2312500 -2312500 0
-2406250 -2406250 0
-2312500 -2312500 0
-2250000 -2250000 0
-2218750 -2218750 0
-2250000 -2250000 0
-2343750 -2343750 0
-2343750 -2343750 0
-2281250 -2281250 0
-2281250 -2281250 0
-2250000 -2250000 0
-2250000 -2250000 0
-2281250 -2281250 0
-2312500 -2312500 0
-2218750 -2218750 0
-2062500 -2062500 0
-2031250 -2031250 0
-2031250 -2031250 0
-2093750 -2093750 0
-2125000 -2125000 0
-1968750 -1968750 0
-1875000 -1875000 0
-1875000 -1875000 0
-1812500 -1812500 0
-1843750 -1843750 0
-1812500 -1812500 0
-1781250 -1781250 0
-1718750 -1718750 0
-1593750 -1593750 0
-1562500 -1562500 0
-1562500 -1562500 0
-1656250 -1656250 0
-1593750 -1593750 0
-1531250 -1531250 0
-1437500 -1437500 0
-1531250 -1531250 0
-1531250 -1531250 0
-1593750 -1593750 0
-1593750 -1593750 0
-1500000 -1500000 0
-1562500 -1562500 0
-1593750 -1593750 0
-1531250 -1531250 0
-1593750 -1593750 0
-1562500 -1562500 0
-1562500 -1562500 0
-1656250 -1656250 0
-1625000 -1625000 0
-1625000 -1625000 0
-1656250 -1656250 0
-1687500 -1687500 0
-1656250 -1656250 0
-1625000 -1625000 0
-1718750 -1718750 0
-1750000 -1750000 0
-1812500 -1812500 0
-1718750 -1718750 0
-1687500 -1687500 0
-1625000 -1625000 0
-1750000 -1750000 0
-1750000 -1750000 0
-1781250 -1781250 0
-1718750 -1718750 0
-1718750 -1718750 0
-1656250 -1656250 0
-1687500 -1687500 0
-1781250 -1781250 0
-1812500 -1812500 0
-1750000 -1750000 0
-1718750 -1718750 0
-1781250 -1781250 0
-1750000 -1750000 0
-1875000 -1875000 0
-1875000 -1875000 0
-1906250 -1906250 0
-1843750 -1843750 0
-1875000 -1875000 0
-1937500 -1937500 0
-1937500 -1937500 0
-1906250 -1906250 0
-1843750 -1843750 0
-1781250 -1781250 0
-1781250 -1781250 0
-1812500 -1812500 0
-1843750 -1843750 0
-1937500 -1937500 0
-1812500 -1812500 0
-1843750 -1843750 0
-1875000 -1875000 0
-1906250 -1906250 0
-1937500 -1937500 0
-2031250 -2031250 0
-1937500 -1937500 0
-1875000 -1875000 0
-1812500 -1812500 0
-1937500 -1937500 0
-2031250 -2031250 0
-2062500 -2062500 0
-1968750 -1968750 0
-1875000 -1875000 0
-1906250 -1906250 0
-1937500 -1937500 0
-2000000 -2000000 0
-2062500 -2062500 0
-2031250 -2031250 0
-1968750 -1968750 0
-1937500 -1937500 0
-1906250 -1906250 0
-1906250 -1906250 0
-1937500 -1937500 0
-1875000 -1875000 0
-1906250 -1906250 0
-1812500 -1812500 0
-1875000 -1875000 0
-1875000 -1875000 0
-1906250 -1906250 0
-1906250 -1906250 0
-1812500 -1812500 0
-1750000 -1750000 0
-1843750 -1843750 0
-1906250 -1906250 0
-1968750 -1968750 0
-1906250 -1906250 0
-1843750 -1843750 0
-1812500 -1812500 0
-1750000 -1750000 0
-1687500 -1687500 0
-1718750 -1718750 0
-1718750 -1718750 0
-1687500 -1687500 0
-1562500 -1562500 0
-1562500 -1562500 0
-1593750 -1593750 0
-1406250 -1406250 0
-1375000 -1375000 0
-1281250 -1281250 0
-1250000 -1250000 0
-1281250 -1281250 0
-1343750 -1343750 0
-1437500 -1437500 0
-1375000 -1375000 0
-1406250 -1406250 0
-1406250 -1406250 0
-1406250 -1406250 0
-1437500 -1437500 0
-1468750 -1468750 0
-1500000 -1500000 0
-1468750 -1468750 0
-1375000 -1375000 0
-1312500 -1312500 0
-1281250 -1281250 0
-1531250 -1531250 0
-1781250 -1781250 0
-1781250 -1781250 0
-1875000 -1875000 0
-1937500 -1937500 0
-2062500 -2062500 0
-2062500 -2062500 0
-2062500 -2062500 0
-2062500 -2062500 0
-2062500 -2062500 0
-2062500 -2062500 0
-2062500 -2062500 0
-2062500 -2062500 0
-2062500 -2062500 0
-2062500 -2062500 0
-2062500 -2062500 0
-2062500 -2062500 0
-2062500 -2062500 0
-2062500 -2062500 0
-2062500 -2062500 0
-2062500 -2062500 0
-2062500 -2062500 0
-2062500 -2062500 0
-2062500 -2062500 0
-2062500 -2062500 0
-2062500 -2062500 0
-2062500 -2062500 0
-2062500 -2062500 0
-2062500 -2062500 0
-2062500 -2062500 0
-2062500 -2062500 0
-2062500 -2062500 0
-2062500 -2062500 0
-2062500 -2062500 0
-2062500 -2062500 0
-2062500 -2062500 0
-2062500 -2062500 0
-2062500 -2062500 0
-2062500 -2062500 0
-2062500 -2062500 0
-2062500 -2062500 0
-2062500 -2062500 0
-2062500 -2062500 0
-2062500 -2062500 0
-2062500 -2062500 0
-2062500 -2062500 0
-2062500 -2062500 0
-2062500 -2062500 0
-2062500 -2062500 0
-2062500 -2062500 0
-2062500 -2062500 0
-2062500 -2062500 0
-2062500 -2062500 0
-2062500 -2062500 0
-2062500 -2062500 0
-2062500 -2062500 0
-2062500 -2062500 0
-2062500 -2062500 0
-2062500 -2062500 0
-2062500 -2062500 0
-2062500 -2062500 0
-2062500 -2062500 0
-2062500 -2062500 0
-2062500 -2062500 0
-2062500 -2062500 0
-2062500 -2062500 0
-2062500 -2062500 0
-2062500 -2062500 0
-2062500 -2062500 0
-2062500 -2062500 0
-2062500 -2062500 0
-2062500 -2062500 0
-2062500 -2062500 0
-2062500 -2062500 0
-2062500 -2062500 0
-2062500 -2062500 0
-2062500 -2062500 0
-2062500 -2062500 0
-2062500 -2062500 0
-2062500 -2062500 0
-2062500 -2062500 0
-2062500 -2062500 0
-2062500 -2062500 0
-2062500 -2062500 0
-2062500 -2062500 0
-2062500 -2062500 0
-2062500 -2062500 0
-2062500 -2062500 0
-2062500 -2062500 0
-2062500 -2062500 0
-2062500 -2062500 0
-2062500 -2062500 0
-2062500 -2062500 0
-2062500 -2062500 0
-2062500 -2062500 0
-2062500 -2062500 0
-2062500 -2062500 0
-2062500 -2062500 0
-2062500 -2062500 0
-2062500 -2062500 0
-2062500 -2062500 0
-2062500 -2062500 0
-2062500 -2062500 0
-2062500 -2062500 0
-2062500 -2062500 0
-2062500 -2062500 0
-2062500 -2062500 0
-2062500 -2062500 0
-2062500 -2062500 0
-2062500 -2062500 0
-2062500 -2062500 0
-2062500 -2062500 0
-2062500 -2062500 0
-2062500 -2062500 0
-2062500 -2062500 0
-2062500 -2062500 0
-2062500 -2062500 0
-2062500 -2062500 0
-2062500 -2062500 0
-2062500 -2062500 0
-2062500 -2062500 0
-2062500 -2062500 0
-2062500 -2062500 0
-2062500 -2062500 0
-2062500 -2062500 0
-2062500 -2062500 0
-2062500 -2062500 0
-2062500 -2062500 0
-2062500 -2062500 0
-2062500 -2062500 0
-2062500 -2062500 0
-2062500 -2062500 0
-2062500 -2062500 0
-2062500 -2062500 0
-2062500 -2062500 0
-2062500 -2062500 0
-2062500 -2062500 0
-2062500 -2062500 0
-2062500 -2062500 0
-2062500 -2062500 0
-2062500 -2062500 0
-2062500 -2062500 0
-2062500 -2062500 0
-2062500 -2062500 0
-2062500 -2062500 0
-2062500 -2062500 0
-2062500 -2062500 0
-2062500 -2062500 0
-2062500 -2062500 0
-2062500 -2062500 0
-2062500 -2062500 0
-2062500 -2062500 0
-2062500 -2062500 0
-2062500 -2062500 0
-2062500 -2062500 0
-2062500 -2062500 0
-2062500 -2062500 0
-2062500 -2062500 0
-2062500 -2062500 0
-2062500 -2062500 0
-2062500 -2062500 0
-2062500 -2062500 0
-2062500 -2062500 0
-2062500 -2062500 0
-2062500 -2062500 0
-2062500 -2062500 0
-2062500 -2062500 0
-2062500 -2062500 0
-2062500 -2062500 0
-2062500 -2062500 0
-2062500 -2062500 0
-2062500 -2062500 0
-2062500 -2062500 0
-2062500 -2062500 0
-2062500 -2062500 0
-2062500 -2062500 0
-2062500 -2062500 0
-2062500 -2062500 0
-2062500 -2062500 0
-2062500 -2062500 0
-2062500 -2062500 0
-2062500 -2062500 0
-2062500 -2062500 0
-2062500 -2062500 0
-2062500 -2062500 0
-2062500 -2062500 0
-2062500 -2062500 0
-2062500 -2062500 0
-2062500 -2062500 0
-2062500 -2062500 0
-2062500 -2062500 0
-2062500 -2062500 0
-2062500 -2062500 0
-2062500 -2062500 0
-2062500 -2062500 0
-2062500 -2062500 0
-2062500 -2062500 0
-2062500 -2062500 0
-2062500 -2062500 0
-2062500 -2062500 0
-2062500 -2062500 0
-2062500 -2062500 0
-2062500 -2062500 0
-2062500 -2062500 0
-2062500 -2062500 0
-2062500 -2062500 0
-2062500 -2062500 0
-2062500 -2062500 0
-2062500 -2062500 0
-2062500 -2062500 0
-2062500 -2062500 0
-2062500 -2062500 0
-2062500 -2062500 0
-2062500 -2062500 0
-2062500 -2062500 0
-2062500 -2062500 0
-2062500 -2062500 0
-2062500 -2062500 0
-2062500 -2062500 0
-2062500 -2062500 0
-2062500 -2062500 0
-2062500 -2062500 0
-2062500 -2062500 0
-2062500 -2062500 0
-2062500 -2062500 0
-2062500 -2062500 0
-2062500 -2062500 0
-2062500 -2062500 0
-2062500 -2062500 0
-2062500 -2062500 0
-2062500 -2062500 0
-2062500 -2062500 0
-2062500 -2062500 0
-2062500 -2062500 0
-2062500 -2062500 0
-2062500 -2062500 0
-2062500 -2062500 0
-2062500 -2062500 0
-2062500 -2062500 0
-2062500 -2062500 0
-2062500 -2062500 0
-2062500 -2062500 0
-2062500 -2062500 0
-2062500 -2062500 0
-2062500 -2062500 0
-2062500 -2062500 0
-2062500 -2062500 0
-2062500 -2062500 0
-2062500 -2062500 0
-2062500 -2062500 0
-2062500 -2062500 0
-2062500 -2062500 0
-2062500 -2062500 0
-2062500 -2062500 0
-2062500 -2062500 0
-2062500 -2062500 0
-2062500 -2062500 0
-2062500 -2062500 0
-2062500 -2062500 0
-2062500 -2062500 0
-2062500 -2062500 0
-2062500 -2062500 0
-2062500 -2062500 0
-2062500 -2062500 0
-2062500 -2062500 0
-2062500 -2062500 0
-2062500 -2062500 0
-2062500 -2062500 0
-2062500 -2062500 0
-2062500 -2062500 0
-2062500 -2062500 0
-2062500 -2062500 0
-2062500 -2062500 0
-2062500 -2062500 0
-2062500 -2062500 0
-2062500 -2062500 0
-2062500 -2062500 0
-2062500 -2062500 0
-2062500 -2062500 0
-2062500 -2062500 0
-2062500 -2062500 0
-2062500 -2062500 0
-2062500 -2062500 0
-2062500 -2062500 0
-2062500 -2062500 0
-2062500 -2062500 0
-2062500 -2062500 0
-2062500 -2062500 0
-2062500 -2062500 0
-2062500 -2062500 0
-2062500 -2062500 0
-2062500 -2062500 0
-2062500 -2062500 0
-2062500 -2062500 0
-2062500 -2062500 0
-2062500 -2062500 0
-2062500 -2062500 0
-2062500 -2062500 0
-2062500 -2062500 0
-2062500 -2062500 0
-2062500 -2062500 0
-2062500 -2062500 0
-2062500 -2062500 0
-2062500 -2062500 0
-2062500 -2062500 0
-2062500 -2062500 0
-2062500 -2062500 0
-2062500 -2062500 0
-2062500 -2062500 0
-2062500 -2062500 0
-2062500 -2062500 0
-2062500 -2062500 0
-2062500 -2062500 0
-2062500 -2062500 0
-2062500 -2062500 0
-2062500 -2062500 0
-2062500 -2062500 0
-2062500 -2062500 0
-2062500 -2062500 0
-2062500 -2062500 0
-2062500 -2062500 0
-2062500 -2062500 0
-2062500 -2062500 0
-2062500 -2062500 0
-2062500 -2062500 0
-2062500 -2062500 0
-2062500 -2062500 0
-1718750 -1718750 0
-1750000 -1750000 0
-1781250 -1781250 0
-1906250 -1906250 0
-1812500 -1812500 0
-1875000 -1875000 0
-1750000 -1750000 0
-1812500 -1812500 0
-1875000 -1875000 0
-1968750 -1968750 0
-2000000 -2000000 0
-2093750 -2093750 0
-2250000 -2250000 0
-2406250 -2406250 0
-2406250 -2406250 0
-2531250 -2531250 0
-2843750 -2843750 0
-3031250 -3031250 0
-3031250 -3031250 0
-2656250 -2656250 0
-2062500 -2062500 0
-1375000 -1375000 0
-437500 -437500 0
750000 750000 0
2343750 2343750 0
3875000 3875000 0
4875000 4875000 0
5250000 5250000 0
4781250 4781250 0
3250000 3250000 0
1062500 1062500 0
-1031250 -1031250 0
-2281250 -2281250 0
-2718750 -2718750 0
-2656250 -2656250 0
-2312500 -2312500 0
-2062500 -2062500 0
-2031250 -2031250 0
-2093750 -2093750 0
-2156250 -2156250 0
-2062500 -2062500 0
-2031250 -2031250 0
-1968750 -1968750 0
-1937500 -1937500 0
-2000000 -2000000 0
-2093750 -2093750 0
-2125000 -2125000 0
-2031250 -2031250 0
-2156250 -2156250 0
-2093750 -2093750 0
-2062500 -2062500 0
-2093750 -2093750 0
-2062500 -2062500 0
-2031250 -2031250 0
-2062500 -2062500 0
-2062500 -2062500 0
-2156250 -2156250 0
-2218750 -2218750 0
-2093750 -2093750 0
-2031250 -2031250 0
-1906250 -1906250 0
-2000000 -2000000 0
-2000000 -2000000 0
-2062500 -2062500 0
-2125000 -2125000 0
-2093750 -2093750 0
-2125000 -2125000 0
-2156250 -2156250 0
-2218750 -2218750 0
-2218750 -2218750 0
-2125000 -2125000 0
-2062500 -2062500 0
-2062500 -2062500 0
-2062500 -2062500 0
-2125000 -2125000 0
-2187500 -2187500 0
-2031250 -2031250 0
-2031250 -2031250 0
-2062500 -2062500 0
-2062500 -2062500 0
-2093750 -2093750 0
-2093750 -2093750 0
-2125000 -2125000 0
-2062500 -2062500 0
-2125000 -2125000 0
-2187500 -2187500 0
-2218750 -2218750 0
-2187500 -2187500 0
-2156250 -2156250 0
-2062500 -2062500 0
-2000000 -2000000 0
-2093750 -2093750 0
-2062500 -2062500 0
-2156250 -2156250 0
-2062500 -2062500 0
-2093750 -2093750 0
-2093750 -2093750 0
-2156250 -2156250 0
-2156250 -2156250 0
-2218750 -2218750 0
-2125000 -2125000 0
-2125000 -2125000 0
-2093750 -2093750 0
-2062500 -2062500 0
-2187500 -2187500 0
-2187500 -2187500 0
-2156250 -2156250 0
-2093750 -2093750 0
-2093750 -2093750 0
-2093750 -2093750 0
-2187500 -2187500 0
-2218750 -2218750 0
-2218750 -2218750 0
-2156250 -2156250 0
-2156250 -2156250 0
-2093750 -2093750 0
-2187500 -2187500 0
-2250000 -2250000 0
-2250000 -2250000 0
-2250000 -2250000 0
-2281250 -2281250 0
-2250000 -2250000 0
-2312500 -2312500 0
-2406250 -2406250 0
-2312500 -2312500 0
-2250000 -2250000 0
-2218750 -2218750 0
-2250000 -2250000 0
-2343750 -2343750 0
-2343750 -2343750 0
-2281250 -2281250 0
-2281250 -2281250 0
-2250000 -2250000 0
-2250000 -2250000 0
-2281250 -2281250 0
-2312500 -2312500 0
-2218750 -2218750 0
-2062500 -2062500 0
-2031250 -2031250 0
-2031250 -2031250 0
-2093750 -2093750 0
-2125000 -2125000 0
-1968750 -1968750 0
-1875000 -1875000 0
-1875000 -1875000 0
-1812500 -1812500 0
-1843750 -1843750 0
-1812500 -1812500 0
-1781250 -1781250 0
-1718750 -1718750 0
-1593750 -1593750 0
-1562500 -1562500 0
-1562500 -1562500 0
-1656250 -1656250 0
-1593750 -1593750 0
-1531250 -1531250 0
-1437500 -1437500 0
-1531250 -1531250 0
-1531250 -1531250 0
-1593750 -1593750 0
-1593750 -1593750 0
-1500000 -1500000 0
-1562500 -1562500 0
-1593750 -1593750 0
-1531250 -1531250 0
-1593750 -1593750 0
-1562500 -1562500 0
-1562500 -1562500 0
-1656250 -1656250 0
-1625000 -1625000 0
-1625000 -1625000 0
-1656250 -1656250 0
-1687500 -1687500 0
-1656250 -1656250 0
-1625000 -1625000 0
-1718750 -1718750 0
-1750000 -1750000 0
-1812500 -1812500 0
-1718750 -1718750 0
-1687500 -1687500 0
-1625000 -1625000 0
-1750000 -1750000 0
-1750000 -1750000 0
-1781250 -1781250 0
-1718750 -1718750 0
-1718750 -1718750 0
-1656250 -1656250 0
-1687500 -1687500 0
-1781250 -1781250 0
-1812500 -1812500 0
-1750000 -1750000 0
-1718750 -1718750 0
-1781250 -1781250 0
-1750000 -1750000 0
-1875000 -1875000 0
-1875000 -1875000 0
-1906250 -1906250 0
-1843750 -1843750 0
-1875000 -1875000 0
-1937500 -1937500 0
-1937500 -1937500 0
-1906250 -1906250 0
-1843750 -1843750 0
-1781250 -1781250 0
-1781250 -1781250 0
-1812500 -1812500 0
-1843750 -1843750 0
-1937500 -1937500 0
-1812500 -1812500 0
-1843750 -1843750 0
-1875000 -1875000 0
-1906250 -1906250 0
-1937500 -1937500 0
-2031250 -2031250 0
-1937500 -1937500 0
-1875000 -1875000 0
-1812500 -1812500 0
-1937500 -1937500 0
-2031250 -2031250 0
-2062500 -2062500 0
-1968750 -1968750 0
-1875000 -1875000 0
-1906250 -1906250 0
-1937500 -1937500 0
-2000000 -2000000 0
-2062500 -2062500 0
-2031250 -2031250 0
-1968750 -1968750 0
-1937500 -1937500 0
-1906250 -1906250 0
-1906250 -1906250 0
-1937500 -1937500 0
-1875000 -1875000 0
-1906250 -1906250 0
-1812500 -1812500 0
-1875000 -1875000 0
-1875000 -1875000 0
-1906250 -1906250 0
-1906250 -1906250 0
-1812500 -1812500 0
-1750000 -1750000 0
-1843750 -1843750 0
-1906250 -1906250 0
-1968750 -1968750 0
-1906250 -1906250 0
-1843750 -1843750 0
-1812500 -1812500 0
-1750000 -1750000 0
-1687500 -1687500 0
-1718750 -1718750 0
-1718750 -1718750 0
-1687500 -1687500 0
-1562500 -1562500 0
-1562500 -1562500 0
-1593750 -1593750 0
-1406250 -1406250 0
-1375000 -1375000 0
-1281250 -1281250 0
-1250000 -1250000 0
-1281250 -1281250 0
-1343750 -1343750 0
-1437500 -1437500 0
-1375000 -1375000 0
-1406250 -1406250 0
-1406250 -1406250 0
-1406250 -1406250 0
-1437500 -1437500 0
-1468750 -1468750 0
-1500000 -1500000 0
-1468750 -1468750 0
-1375000 -1375000 0
-1312500 -1312500 0
-1281250 -1281250 0
-1531250 -1531250 0
-1781250 -1781250 0
-1781250 -1781250 0
-1875000 -1875000 0
-1937500 -1937500 0
-2062500 -2062500 0
-2062500 -2062500 0
-2062500 -2062500 0
-2062500 -2062500 0
-2062500 -2062500 0
-2062500 -2062500 0
-2062500 -2062500 0
-2062500 -2062500 0
-2062500 -2062500 0
-2062500 -2062500 0
-2062500 -2062500 0
-2062500 -2062500 0
-2062500 -2062500 0
-2062500 -2062500 0
-2062500 -2062500 0
-2062500 -2062500 0
-2062500 -2062500 0
-2062500 -2062500 0
-2062500 -2062500 0
-2062500 -2062500 0
-2062500 -2062500 0
-2062500 -2062500 0
-2062500 -2062500 0
-2062500 -2062500 0
-2062500 -2062500 0
-2062500 -2062500 0
-2062500 -2062500 0
-2062500 -2062500 0
-2062500 -2062500 0
-2062500 -2062500 0
-2062500 -2062500 0
-2062500 -2062500 0
-2062500 -2062500 0
-2062500 -2062500 0
-2062500 -2062500 0
-2062500 -2062500 0
-2062500 -2062500 0
-2062500 -2062500 0
-2062500 -2062500 0
-2062500 -2062500 0
-2062500 -2062500 0
-2062500 -2062500 0
-2062500 -2062500 0
-2062500 -2062500 0
-2062500 -2062500 0
-2062500 -2062500 0
-2062500 -2062500 0
-2062500 -2062500 0
-2062500 -2062500 0
-2062500 -2062500 0
-2062500 -2062500 0
-2062500 -2062500 0
-2062500 -2062500 0
-2062500 -2062500 0
-2062500 -2062500 0
-2062500 -2062500 0
-2062500 -2062500 0
-2062500 -2062500 0
-2062500 -2062500 0
-2062500 -2062500 0
-2062500 -2062500 0
-2062500 -2062500 0
-2062500 -2062500 0
-2062500 -2062500 0
-2062500 -2062500 0
-2062500 -2062500 0
-2062500 -2062500 0
-2062500 -2062500 0
-2062500 -2062500 0
-2062500 -2062500 0
-2062500 -2062500 0
-2062500 -2062500 0
-2062500 -2062500 0
-2062500 -2062500 0
-2062500 -2062500 0
-2062500 -2062500 0
-2062500 -2062500 0
-2062500 -2062500 0
-2062500 -2062500 0
-2062500 -2062500 0
-2062500 -2062500 0
-2062500 -2062500 0
-2062500 -2062500 0
-2062500 -2062500 0
-2062500 -2062500 0
-2062500 -2062500 0
-2062500 -2062500 0
-2062500 -2062500 0
-2062500 -2062500 0
-2062500 -2062500 0
-2062500 -2062500 0
-2062500 -2062500 0
-2062500 -2062500 0
-2062500 -2062500 0
-2062500 -2062500 0
-2062500 -2062500 0
-2062500 -2062500 0
-2062500 -2062500 0
-2062500 -2062500 0
-2062500 -2062500 0
-2062500 -2062500 0
-2062500 -2062500 0
-2062500 -2062500 0
-2062500 -2062500 0
-2062500 -2062500 0
-2062500 -2062500 0
-2062500 -2062500 0
-2062500 -2062500 0
-2062500 -2062500 0
-2062500 -2062500 0
-2062500 -2062500 0
-2062500 -2062500 0
-2062500 -2062500 0
-2062500 -2062500 0
-2062500 -2062500 0
-2062500 -2062500 0
-2062500 -2062500 0
-2062500 -2062500 0
-2062500 -2062500 0
-2062500 -2062500 0
-2062500 -2062500 0
-2062500 -2062500 0
-2062500 -2062500 0
-2062500 -2062500 0
-2062500 -2062500 0
-2062500 -2062500 0
-2062500 -2062500 0
-2062500 -2062500 0
-2062500 -2062500 0
-2062500 -2062500 0
-2062500 -2062500 0
-2062500 -2062500 0
-2062500 -2062500 0
-2062500 -2062500 0
-2062500 -2062500 0
-2062500 -2062500 0
-2062500 -2062500 0
-2062500 -2062500 0
-2062500 -2062500 0
-2062500 -2062500 0
-2062500 -2062500 0
-2062500 -2062500 0
-2062500 -2062500 0
-2062500 -2062500 0
-2062500 -2062500 0
-2062500 -2062500 0
-2062500 -2062500 0
-2062500 -2062500 0
-2062500 -2062500 0
-2062500 -2062500 0
-2062500 -2062500 0
-2062500 -2062500 0
-2062500 -2062500 0
-2062500 -2062500 0
-2062500 -2062500 0
-2062500 -2062500 0
-2062500 -2062500 0
-2062500 -2062500 0
-2062500 -2062500 0
-2062500 -2062500 0
-2062500 -2062500 0
-2062500 -2062500 0
-2062500 -2062500 0
-2062500 -2062500 0
-2062500 -2062500 0
-2062500 -2062500 0
-2062500 -2062500 0
-2062500 -2062500 0
-2062500 -2062500 0
-2062500 -2062500 0
-2062500 -2062500 0
-2062500 -2062500 0
-2062500 -2062500 0
-2062500 -2062500 0
-2062500 -2062500 0
-2062500 -2062500 0
-2062500 -2062500 0
-2062500 -2062500 0
-2062500 -2062500 0
-2062500 -2062500 0
-2062500 -2062500 0
-2062500 -2062500 0
-2062500 -2062500 0
-2062500 -2062500 0
-2062500 -2062500 0
-2062500 -2062500 0
-2062500 -2062500 0
-2062500 -2062500 0
-2062500 -2062500 0
-2062500 -2062500 0
-2062500 -2062500 0
-2062500 -2062500 0
-2062500 -2062500 0
-2062500 -2062500 0
-2062500 -2062500 0
-2062500 -2062500 0
-2062500 -2062500 0
-2062500 -2062500 0
-2062500 -2062500 0
-2062500 -2062500 0
-2062500 -2062500 0
-2062500 -2062500 0
-2062500 -2062500 0
-2062500 -2062500 0
-2062500 -2062500 0
-2062500 -2062500 0
-2062500 -2062500 0
-2062500 -2062500 0
-2062500 -2062500 0
-2062500 -2062500 0
-2062500 -2062500 0
-2062500 -2062500 0
-2062500 -2062500 0
-2062500 -2062500 0
-2062500 -2062500 0
-2062500 -2062500 0
-2062500 -2062500 0
-2062500 -2062500 0
-2062500 -2062500 0
-2062500 -2062500 0
-2062500 -2062500 0
-2062500 -2062500 0
-2062500 -2062500 0
-2062500 -2062500 0
-2062500 -2062500 0
-2062500 -2062500 0
-2062500 -2062500 0
-2062500 -2062500 0
-2062500 -2062500 0
-2062500 -2062500 0
-2062500 -2062500 0
-2062500 -2062500 0
-2062500 -2062500 0
-2062500 -2062500 0
-2062500 -2062500 0
-2062500 -2062500 0
-2062500 -2062500 0
-2062500 -2062500 0
-2062500 -2062500 0
-2062500 -2062500 0
-2062500 -2062500 0
-2062500 -2062500 0
-2062500 -2062500 0
-2062500 -2062500 0
-2062500 -2062500 0
-2062500 -2062500 0
-2062500 -2062500 0
-2062500 -2062500 0
-2062500 -2062500 0
-2062500 -2062500 0
-2062500 -2062500 0
-2062500 -2062500 0
-2062500 -2062500 0
-2062500 -2062500 0
-2062500 -2062500 0
-2062500 -2062500 0
-2062500 -2062500 0
-2062500 -2062500 0
-2062500 -2062500 0
-2062500 -2062500 0
-2062500 -2062500 0
-2062500 -2062500 0
-2062500 -2062500 0
-2062500 -2062500 0
-2062500 -2062500 0
-2062500 -2062500 0
-2062500 -2062500 0
-2062500 -2062500 0
-2062500 -2062500 0
-2062500 -2062500 0
-2062500 -2062500 0
-2062500 -2062500 0
-2062500 -2062500 0
-2062500 -2062500 0
-2062500 -2062500 0
-2062500 -2062500 0
-2062500 -2062500 0
-2062500 -2062500 0
-2062500 -2062500 0
-2062500 -2062500 0
-2062500 -2062500 0
-2062500 -2062500 0
-2062500 -2062500 0
-2062500 -2062500 0
-2062500 -2062500 0
-2062500 -2062500 0
-2062500 -2062500 0
-2062500 -2062500 0
-2062500 -2062500 0
-2062500 -2062500 0
-2062500 -2062500 0
-2062500 -2062500 0
-2062500 -2062500 0
-2062500 -2062500 0
-2062500 -2062500 0
-2062500 -2062500 0
-2062500 -2062500 0
-2062500 -2062500 0
-2062500 -2062500 0
-2062500 -2062500 0
-2062500 -2062500 0
-2062500 -2062500 0
-2062500 -2062500 0
-2062500 -2062500 0
-2062500 -2062500 0
-2062500 -2062500 0
-2062500 -2062500 0
-2062500 -2062500 0
-2062500 -2062500 0
-2062500 -2062500 0
-2062500 -2062500 0
-2062500 -2062500 0
-2062500 -2062500 0
-2062500 -2062500 0
-2062500 -2062500 0
-2062500 -2062500 0
-2062500 -2062500 0
-2062500 -2062500 0
-2062500 -2062500 0
-2062500 -2062500 0
-2062500 -2062500 0
-2062500 -2062500 0
