426329 319747 -266456
424746 318559 -265466
421211 315908 -263257
415734 311801 -259834
408266 306199 -255166
398923 299192 -249327
387852 290889 -242407
375193 281395 -234496
361090 270817 -225681
345681 259261 -216051
329106 246829 -205691
311501 233626 -194688
292998 219748 -183123
273724 205293 -171078
253809 190357 -158631
233378 175033 -145861
212556 159417 -132847
191467 143600 -119667
170233 127675 -106396
148976 111732 -93110
127814 95860 -79883
106867 80150 -66792
86259 64694 -53912
66112 49584 -41320
46547 34910 -29092
27684 20763 -17303
9631 7223 -6019
-7573 -5680 4733
-23899 -17924 14937
-39321 -29491 24575
-53816 -40362 33635
-67367 -50525 42104
-79967 -59975 49979
-91613 -68710 57258
-102309 -76731 63943
-112058 -84044 70036
-120871 -90653 75544
-128760 -96570 80475
-135740 -101805 84837
-141831 -106373 88644
-147057 -110293 91911
-151441 -113580 94650
-154995 -116246 96872
-157733 -118300 98583
-159672 -119754 99795
-160833 -120624 100520
-161238 -120929 100774
-160916 -120687 100573
-159898 -119923 99936
-158218 -118663 98886
-155914 -116935 97446
-153033 -114774 95645
-149647 -112235 93529
-145839 -109379 91149
-141694 -106270 88558
-137300 -102975 85812
-132747 -99560 82967
-128102 -96077 80064
-123414 -92560 77134
-118734 -89050 74208
-114110 -85582 71318
-109584 -82188 68490
-105176 -78882 65735
-100898 -75673 63061
-96760 -72570 60475
-92773 -69579 57983
-88941 -66706 55588
-85271 -63953 53294
-81765 -61324 51103
-78424 -58818 49015
-75249 -56437 47030
-72237 -54178 45148
-69393 -52045 43371
-66720 -50040 41700
-64221 -48165 40138
-61894 -46420 38683
-59738 -44803 37336
-57749 -43312 36093
-55921 -41941 34951
-54247 -40685 33904
-52717 -39538 32948
-51320 -38490 32075
-50048 -37536 31280
-48890 -36667 30556
-47835 -35876 29896
-46868 -35151 29292
-45973 -34480 28733
-45135 -33851 28209
-44332 -33249 27707
-43544 -32658 27215
-42772 -32079 26733
-42040 -31530 26275
-41355 -31016 25847
-40726 -30544 25453
-40162 -30121 25101
-39673 -29754 24795
-39268 -29451 24542
-38958 -29218 24348
-38752 -29064 24220
-38660 -28995 24162
-38692 -29019 24183
-38852 -29139 24282
-39110 -29332 24443
-39429 -29572 24643
-39773 -29830 24858
-40105 -30079 25066
-40389 -30292 25243
-40588 -30441 25367
-40666 -30499 25416
-40586 -30440 25366
-40314 -30235 25196
-39824 -29868 24890
-39142 -29356 24463
-38306 -28730 23941
-37356 -28017 23347
-36329 -27247 22706
-35265 -26449 22040
-34202 -25651 21376
-33180 -24885 20737
-32237 -24178 20148
-31413 -23560 19633
-30738 -23053 19211
-30200 -22650 18875
-29777 -22332 18610
-29446 -22085 18404
-29187 -21890 18242
-28976 -21732 18110
-28792 -21594 17995
-28612 -21459 17882
-28411 -21308 17756
-28165 -21124 17603
-27857 -20893 17411
-27491 -20618 17182
-27075 -20306 16922
-26619 -19964 16637
-26132 -19599 16332
-25624 -19218 16015
-25102 -18827 15689
-24578 -18434 15361
-24060 -18045 15037
-23557 -17668 14723
-23076 -17307 14422
-22609 -16956 14130
-22143 -16607 13839
-21669 -16252 13543
-21174 -15881 13234
-20647 -15485 12904
-20077 -15058 12548
-19452 -14589 12157
-18761 -14071 11726
-17993 -13494 11245
-17139 -12854 10712
-16210 -12158 10131
-15219 -11414 9512
-14180 -10635 8862
-13107 -9830 8192
-12013 -9009 7508
-10912 -8184 6820
-9818 -7363 6136
-8745 -6559 5465
-7706 -5780 4816
-6712 -5034 4195
-5752 -4314 3595
-4813 -3609 3008
-3879 -2909 2424
-2938 -2203 1836
-1973 -1480 1233
-972 -729 607
80 60 -50
1199 899 -749
2398 1798 -1498
3684 2763 -2303
5041 3780 -3150
6441 4831 -4025
7860 5895 -4912
9271 6953 -5794
10649 7987 -6656
11969 8977 -7480
13204 9903 -8252
14329 10747 -8956
15318 11489 -9574
16157 12118 -10098
16878 12658 -10548
17526 13145 -10954
18149 13612 -11343
18791 14093 -11744
19498 14623 -12186
20316 15237 -12697
21291 15968 -13307
22468 16851 -14043
23899 17924 -14937
25613 19210 -16008
27579 20684 -17237
29746 22310 -18591
32065 24049 -20040
34485 25864 -21553
36957 27717 -23098
39430 29572 -24643
41854 31390 -26159
44180 33135 -27612
46357 34768 -28973
48349 36262 -30218
50171 37628 -31357
51856 38892 -32410
53436 40077 -33397
54942 41206 -34338
56406 42304 -35253
57860 43395 -36162
59335 44501 -37084
60865 45648 -38040
62479 46859 -39049
64203 48152 -40127
66025 49518 -41265
67924 50943 -42452
69881 52410 -43675
71874 53905 -44921
73882 55411 -46176
75885 56914 -47428
77863 58397 -48664
79795 59846 -49872
81660 61245 -51038
83443 62582 -52152
85154 63865 -53221
86806 65105 -54254
88417 66313 -55261
90002 67501 -56251
91576 68682 -57235
93155 69866 -58222
94754 71066 -59221
96390 72292 -60244
98077 73558 -61298
99827 74870 -62392
101626 76220 -63516
103458 77593 -64661
105303 78977 -65814
107144 80358 -66965
108961 81721 -68101
110737 83053 -69211
112454 84340 -70284
114093 85569 -71308
115636 86727 -72272
117069 87802 -73168
118404 88803 -74002
119658 89743 -74786
120847 90635 -75529
121989 91492 -76243
123101 92326 -76938
124200 93150 -77625
125304 93978 -78315
126428 94821 -79017
127591 95693 -79744
128805 96604 -80503
130062 97547 -81289
131348 98511 -82093
132650 99487 -82906
133953 100465 -83721
135245 101434 -84528
136511 102383 -85319
137737 103302 -86085
138910 104182 -86818
140016 105012 -87510
141044 105783 -88153
141996 106497 -88748
142877 107157 -89298
143690 107768 -89806
144442 108332 -90276
145137 108853 -90711
145780 109335 -91113
146377 109782 -91485
146930 110198 -91831
147447 110585 -92154
147931 110948 -92456
148378 111283 -92736
148786 111589 -92991
149150 111863 -93219
149468 112101 -93417
149734 112300 -93583
149945 112459 -93715
150098 112573 -93811
150188 112641 -93867
150212 112659 -93882
150167 112625 -93854
150057 112543 -93786
149889 112417 -93681
149669 112251 -93543
149402 112051 -93376
149094 111820 -93184
148752 111564 -92970
148379 111284 -92737
147983 110987 -92489
147572 110679 -92232
147151 110363 -91969
146718 110038 -91698
146270 109702 -91418
145802 109351 -91126
145310 108983 -90819
144792 108594 -90495
144242 108181 -90151
143656 107742 -89785
143032 107274 -89395
142364 106773 -88977
141649 106237 -88531
140887 105665 -88054
140075 105056 -87547
139214 104410 -87008
138302 103726 -86438
137339 103004 -85836
136323 102242 -85202
135255 101441 -84534
134133 100600 -83833
132956 99717 -83097
131725 98794 -82328
130446 97835 -81529
129126 96845 -80704
127774 95830 -79858
126395 94796 -78997
124999 93749 -78124
123592 92694 -77245
122183 91637 -76364
120778 90583 -75486
119386 89539 -74616
118011 88508 -73756
116646 87485 -72904
115283 86462 -72051
113910 85432 -71194
112518 84389 -70324
111097 83323 -69436
109637 82228 -68523
108128 81096 -67580
106560 79920 -66600
104923 78692 -65577
103210 77407 -64506
101428 76071 -63392
99587 74690 -62242
97698 73274 -61061
95773 71830 -59858
93821 70366 -58638
91854 68890 -57409
89882 67412 -56176
87917 65937 -54948
85968 64476 -53730
84044 63033 -52527
82146 61609 -51341
80270 60203 -50169
78414 58810 -49008
76574 57430 -47858
74747 56060 -46716
72930 54697 -45581
71121 53341 -44450
69316 51987 -43322
67513 50635 -42195
65709 49281 -41068
63904 47928 -39940
62101 46576 -38813
60301 45225 -37688
58505 43879 -36565
56716 42537 -35447
54934 41200 -34333
53162 39871 -33226
51400 38550 -32125
49652 37239 -31032
47917 35937 -29948
46196 34647 -28872
44488 33366 -27805
42794 32095 -26746
41112 30834 -25695
39442 29581 -24651
37784 28338 -23615
36138 27103 -22586
34502 25877 -21564
32878 24658 -20548
31263 23447 -19539
29658 22243 -18536
28062 21047 -17539
26476 19857 -16547
24898 18673 -15561
23327 17495 -14579
21765 16324 -13603
20210 15157 -12631
18662 13996 -11663
17120 12840 -10700
15584 11688 -9740
14053 10539 -8783
12525 9394 -7828
11000 8250 -6875
9476 7107 -5922
7949 5962 -4968
6420 4815 -4012
4884 3663 -3052
3341 2506 -2088
1788 1341 -1117
225 169 -141
-1335 -1001 834
-2881 -2160 1800
-4396 -3297 2747
-5868 -4401 3667
-7281 -5460 4550
-8621 -6466 5388
-9875 -7406 6171
-11027 -8270 6892
-12064 -9048 7540
-12976 -9732 8110
-13775 -10331 8609
-14480 -10860 9050
-15109 -11331 9443
-15680 -11760 9800
-16212 -12159 10132
-16724 -12543 10452
-17234 -12925 10771
-17760 -13320 11100
-18322 -13741 11451
-18933 -14200 11833
-19590 -14693 12244
-20284 -15213 12677
-21003 -15752 13127
-21739 -16304 13587
-22482 -16862 14051
-23223 -17417 14514
-23951 -17963 14969
-24657 -18492 15410
-25331 -18998 15831
-25965 -19474 16228
-26563 -19922 16602
-27130 -20348 16956
-27672 -20754 17295
-28194 -21146 17621
-28702 -21527 17939
-29202 -21902 18251
-29700 -22275 18562
-30200 -22650 18875
-30710 -23032 19193
-31231 -23423 19519
-31758 -23818 19849
-32279 -24209 20174
-32784 -24588 20490
-33261 -24945 20788
-33700 -25275 21062
-34091 -25568 21307
-34422 -25817 21514
-34684 -26013 21677
-34864 -26148 21790
-34958 -26218 21848
-34976 -26232 21860
-34937 -26202 21835
-34859 -26144 21787
-34760 -26070 21725
-34659 -25994 21662
-34574 -25930 21608
-34522 -25891 21576
-34522 -25892 21576
-34593 -25944 21620
-34747 -26060 21717
-34977 -26233 21861
-35268 -26451 22042
-35606 -26704 22253
-35975 -26981 22484
-36360 -27270 22725
-36748 -27561 22967
-37123 -27842 23202
-37471 -28103 23419
-37777 -28332 23610
-38028 -28521 23768
-38229 -28672 23893
-38386 -28789 23991
-38507 -28880 24066
-38598 -28948 24124
-38668 -29001 24167
-38724 -29043 24202
-38772 -29079 24232
-38821 -29116 24263
-38878 -29159 24299
-38948 -29211 24343
-39028 -29271 24393
-39111 -29333 24444
-39191 -29393 24494
-39262 -29446 24538
-39316 -29487 24572
-39348 -29511 24592
-39350 -29513 24594
-39318 -29488 24573
-39243 -29432 24527
-39123 -29342 24452
-38961 -29220 24350
-38765 -29074 24228
-38544 -28908 24090
-38306 -28729 23941
-38056 -28542 23785
-37803 -28352 23627
-37555 -28166 23472
-37319 -27989 23324
-37104 -27828 23190
-36915 -27686 23071
-36751 -27563 22969
-36609 -27457 22881
-36486 -27365 22804
-36379 -27284 22736
-36283 -27212 22677
-36196 -27147 22622
-36114 -27085 22571
-36034 -27025 22521
-35953 -26964 22470
-35867 -26900 22417
-35777 -26833 22361
-35684 -26763 22303
-35589 -26692 22243
-35492 -26619 22182
-35395 -26546 22121
-35298 -26473 22061
-35202 -26401 22001
-35108 -26331 21942
-35018 -26263 21886
-34930 -26197 21831
-34840 -26130 21775
-34742 -26056 21714
-34629 -25971 21643
-34494 -25870 21558
-34330 -25748 21456
-34132 -25599 21333
-33893 -25420 21183
-33606 -25204 21004
-33264 -24948 20790
-32865 -24648 20540
-32419 -24314 20262
-31946 -23959 19966
-31460 -23595 19662
-30980 -23235 19363
-30523 -22892 19077
-30106 -22580 18816
-29746 -22309 18591
-29460 -22095 18412
-29265 -21948 18290
-29174 -21880 18234
-29180 -21885 18238
-29270 -21953 18294
-29430 -22072 18394
-29646 -22234 18529
-29905 -22428 18690
-30192 -22644 18870
-30495 -22871 19059
-30800 -23100 19250
-31092 -23319 19433
-31361 -23521 19600
-31600 -23700 19750
-31805 -23854 19878
-31974 -23980 19983
-32102 -24076 20064
-32186 -24140 20116
-32224 -24168 20140
-32210 -24157 20131
-32142 -24106 20089
-32016 -24012 20010
-31831 -23873 19894
-31589 -23692 19743
-31299 -23474 19562
-30966 -23224 19353
-30597 -22947 19123
-30198 -22648 18873
-29776 -22332 18610
-29337 -22003 18336
-28888 -21666 18055
-28436 -21327 17772
-27987 -20990 17492
-27553 -20665 17221
-27148 -20361 16967
-26784 -20088 16740
-26474 -19856 16546
-26232 -19674 16395
-26071 -19553 16294
-26002 -19502 16251
-26041 -19530 16275
-26199 -19649 16374
-26483 -19862 16552
-26868 -20151 16792
-27318 -20488 17073
-27796 -20847 17372
-28266 -21199 17666
-28693 -21519 17933
-29039 -21779 18149
-29270 -21953 18294
-29349 -22012 18343
-29240 -21930 18275
-28916 -21687 18072
-28403 -21302 17752
-27745 -20808 17340
-26982 -20236 16864
-26158 -19619 16349
-25316 -18987 15822
-24497 -18373 15310
-23744 -17808 14840
-23100 -17325 14437
-22607 -16955 14129
-22298 -16723 13936
-22162 -16621 13851
-22172 -16629 13857
-22301 -16726 13938
-22522 -16891 14076
-22808 -17106 14255
-23132 -17349 14457
-23467 -17600 14667
-23787 -17840 14866
-24063 -18047 15039
-24275 -18206 15172
-24421 -18315 15263
-24507 -18380 15317
-24540 -18405 15338
-24528 -18396 15330
-24476 -18357 15298
-24392 -18294 15245
-24282 -18211 15176
-24152 -18114 15095
-24010 -18007 15006
-23860 -17895 14912
-23703 -17777 14814
-23537 -17653 14711
-23361 -17520 14600
-23171 -17378 14482
-22967 -17225 14354
-22746 -17059 14216
-22506 -16879 14066
-22246 -16684 13904
-21964 -16473 13727
-21659 -16244 13537
-21341 -16006 13338
-21022 -15767 13139
-20715 -15536 12947
-20433 -15324 12770
-20187 -15140 12616
-19989 -14992 12493
-19854 -14890 12408
-19792 -14844 12370
-19816 -14862 12385
-19934 -14951 12459
-20125 -15093 12578
-20357 -15268 12723
-20602 -15451 12876
-20829 -15621 13018
-21007 -15755 13129
-21107 -15830 13191
-21097 -15823 13186
-20949 -15712 13093
-20632 -15474 12895
-20125 -15093 12578
-19456 -14592 12160
-18673 -14004 11670
-17820 -13365 11137
-16943 -12707 10589
-16088 -12066 10055
-15302 -11476 9563
-14629 -10971 9143
-14115 -10586 8822
-13806 -10355 8629
-13738 -10303 8586
-13885 -10414 8678
-14205 -10653 8878
-14652 -10989 9157
-15183 -11387 9489
-15755 -11816 9847
-16323 -12242 10202
-16843 -12632 10527
-17272 -12954 10795
-17566 -13174 10979
-17689 -13267 11056
-17654 -13240 11033
-17487 -13115 10929
-17217 -12913 10761
-16872 -12654 10545
-16478 -12358 10298
-16064 -12048 10040
-15657 -11742 9785
-15285 -11463 9553
-14975 -11231 9359
-14751 -11063 9219
-14606 -10955 9129
-14527 -10895 9079
-14500 -10875 9062
-14508 -10881 9068
-14539 -10904 9087
-14578 -10933 9111
-14610 -10958 9131
-14621 -10966 9138
-14597 -10947 9123
-14525 -10894 9078
-14409 -10807 9006
-14258 -10694 8911
-14081 -10561 8800
-13885 -10414 8678
-13680 -10260 8550
-13474 -10106 8421
-13276 -9957 8297
-13093 -9820 8183
-12936 -9702 8085
-12809 -9607 8006
-12712 -9534 7945
-12637 -9478 7898
-12581 -9435 7863
-12536 -9402 7835
-12496 -9372 7810
-12455 -9341 7784
-12407 -9305 7754
-12344 -9258 7715
-12261 -9196 7663
-12152 -9114 7595
-12019 -9014 7512
-11866 -8900 7416
-11698 -8774 7311
-11519 -8639 7199
-11332 -8499 7082
-11143 -8357 6964
-10954 -8216 6846
-10771 -8078 6732
-10598 -7948 6624
-10437 -7828 6523
-10281 -7711 6426
-10121 -7591 6325
-9946 -7459 6216
-9746 -7310 6091
-9512 -7134 5945
-9233 -6925 5771
-8900 -6675 5562
-8502 -6376 5314
-8029 -6022 5018
-7476 -5607 4672
-6851 -5138 4281
-6171 -4628 3857
-5454 -4091 3409
-4716 -3537 2947
-3972 -2979 2482
-3240 -2430 2025
-2536 -1902 1585
-1877 -1407 1173
-1279 -959 799
-754 -565 471
-294 -220 184
117 88 -73
498 373 -311
864 648 -540
1233 925 -770
1620 1215 -1012
2043 1532 -1277
2518 1888 -1573
3061 2296 -1913
3687 2765 -2304
4394 3295 -2746
5173 3879 -3233
6016 4512 -3760
6917 5187 -4323
7866 5900 -4916
8857 6643 -5536
9881 7411 -6176
10931 8198 -6832
11999 8999 -7499
13078 9809 -8174
14170 10628 -8856
15279 11459 -9549
16410 12307 -10256
17566 13174 -10979
18752 14064 -11720
19973 14979 -12483
21231 15923 -13269
22533 16899 -14083
23881 17911 -14926
25281 18961 -15801
26734 20050 -16709
28233 21174 -17645
29770 22327 -18606
31337 23503 -19586
32929 24696 -20580
34536 25902 -21585
36152 27114 -22595
37769 28326 -23605
39379 29534 -24612
40977 30733 -25611
42565 31923 -26603
44146 33109 -27591
45725 34294 -28578
47306 35479 -29566
48894 36670 -30559
50493 37870 -31558
52107 39080 -32567
53741 40306 -33588
55399 41549 -34624
57085 42814 -35678
58797 44097 -36748
60530 45397 -37831
62281 46710 -38925
64046 48034 -40028
65821 49366 -41138
67603 50702 -42251
69387 52040 -43366
71169 53377 -44481
72947 54710 -45592
74716 56037 -46697
76472 57354 -47795
78212 58659 -48882
79932 59949 -49957
81629 61221 -51018
83298 62474 -52061
84938 63703 -53086
86543 64907 -54089
88111 66083 -55069
89638 67228 -56023
91120 68340 -56950
92557 69417 -57848
93947 70460 -58717
95291 71468 -59557
96587 72440 -60367
97835 73376 -61146
99034 74275 -61896
100183 75137 -62614
101283 75962 -63302
102332 76749 -63958
103330 77498 -64581
104274 78205 -65171
105161 78871 -65725
105988 79491 -66242
106752 80064 -66720
107450 80587 -67156
108079 81059 -67549
108636 81477 -67897
109117 81838 -68198
109521 82141 -68451
109845 82383 -68653
110090 82567 -68806
110260 82695 -68912
110358 82769 -68974
110389 82791 -68993
110354 82766 -68971
110259 82694 -68912
110106 82579 -68816
109897 82422 -68685
109636 82227 -68522
109330 81998 -68331
108977 81732 -68110
108569 81427 -67855
108101 81076 -67563
107567 80675 -67229
106961 80221 -66850
106276 79707 -66422
105507 79130 -65941
104646 78484 -65404
103688 77766 -64805
102628 76971 -64142
101472 76104 -63420
100228 75171 -62642
98906 74179 -61816
97515 73136 -60946
96063 72047 -60039
94560 70920 -59100
93014 69760 -58134
91435 68576 -57146
89831 67373 -56144
88210 66157 -55131
86576 64932 -54110
84931 63698 -53082
83276 62457 -52047
81614 61211 -51009
79947 59960 -49967
78276 58707 -48922
76602 57452 -47876
74929 56196 -46830
73256 54942 -45785
71587 53690 -44742
69923 52442 -43702
68267 51200 -42667
66620 49965 -41637
64985 48738 -40615
63363 47522 -39602
61758 46318 -38598
60170 45128 -37606
58603 43952 -36626
57057 42793 -35660
55534 41651 -34709
54031 40523 -33769
52543 39407 -32839
51063 38297 -31914
49587 37190 -30991
48109 36081 -30068
46624 34968 -29140
45126 33845 -28204
43611 32708 -27257
42072 31554 -26295
40505 30379 -25315
38915 29186 -24322
37309 27982 -23318
35695 26771 -22309
34080 25560 -21300
32471 24353 -20294
30875 23156 -19297
29301 21976 -18313
27754 20816 -17346
26243 19682 -16402
24775 18581 -15484
23355 17516 -14596
21988 16491 -13743
20682 15511 -12926
19441 14580 -12150
18270 13703 -11419
17176 12882 -10735
16164 12123 -10102
15237 11428 -9523
14389 10791 -8993
13619 10214 -8511
12920 9690 -8075
12281 9211 -7675
11689 8767 -7305
11131 8348 -6957
10595 7946 -6622
10068 7551 -6292
9536 7152 -5960
8987 6740 -5616
8406 6304 -5253
7783 5837 -4864
7123 5342 -4452
6441 4831 -4026
5748 4311 -3592
5056 3792 -3160
4377 3283 -2735
3723 2792 -2327
3106 2330 -1941
2538 1903 -1586
2028 1521 -1267
1587 1190 -992
1211 908 -757
892 669 -557
620 465 -387
388 291 -242
186 139 -116
5 3 -3
-163 -122 102
-330 -247 206
-504 -378 315
-694 -520 434
-908 -681 567
-1152 -864 720
-1431 -1073 894
-1751 -1313 1094
-2120 -1590 1325
-2543 -1907 1589
-3028 -2271 1892
-3581 -2686 2238
-4210 -3158 2631
-4922 -3692 3076
-5720 -4290 3575
-6606 -4954 4128
-7582 -5687 4739
-8652 -6489 5408
-9818 -7364 6136
-11083 -8312 6927
-12451 -9338 7782
-13924 -10443 8702
-15506 -11630 9691
-17201 -12901 10751
-19011 -14258 11882
-20938 -15703 13086
-22981 -17236 14363
-25131 -18848 15707
-27376 -20532 17110
-29703 -22277 18564
-32095 -24071 20059
-34536 -25902 21585
-37007 -27755 23129
-39490 -29617 24681
-41974 -31480 26233
-44452 -33339 27783
-46917 -35187 29323
-49356 -37017 30847
-51759 -38819 32349
-54111 -40583 33819
-56396 -42297 35248
-58598 -43949 36624
-60697 -45523 37936
-62671 -47003 39169
-64489 -48367 40305
-66113 -49585 41321
-67506 -50629 42191
-68627 -51470 42892
-69434 -52076 43396
-69885 -52413 43678
-69933 -52450 43708
-69532 -52149 43457
-68633 -51475 42896
-67187 -50390 41992
-65141 -48856 40713
-62479 -46859 39049
-59247 -44435 37029
-55384 -41538 34615
-50828 -38121 31767
-45523 -34142 28452
-39423 -29567 24639
-32490 -24367 20306
-24692 -18519 15432
-16006 -12005 10004
-6409 -4807 4006
4117 3088 -2573
15585 11689 -9740
27996 20997 -17497
41345 31008 -25840
55618 41713 -34761
70793 53094 -44245
86841 65130 -54275
103724 77793 -64827
121393 91044 -75870
139767 104825 -87354
158747 119060 -99217
178228 133671 -111392
198095 148571 -123809
218226 163669 -136391
238490 178868 -149056
258750 194063 -161719
278859 209144 -174287
298662 223997 -186664
318003 238502 -198752
336746 252560 -210466
354796 266097 -221747
372025 279019 -232516
388276 291207 -242672
403408 302556 -252130
417292 312969 -260808
429820 322365 -268637
440894 330671 -275559
450435 337826 -281522
458373 343779 -286483
464624 348468 -290390
469109 351831 -293193
471763 353822 -294852
472539 354404 -295337
471402 353552 -294626
468335 351251 -292709
463334 347500 -289583
456412 342309 -285257
447598 335698 -279748
436937 327703 -273086
424516 318387 -265322
410443 307832 -256527
394844 296133 -246777
377858 283393 -236161
359641 269730 -224775
340363 255272 -212727
320212 240159 -200132
299388 224541 -187117
278109 208581 -173818
256604 192453 -160377
235101 176326 -146938
213681 160260 -133550
192401 144301 -120251
171363 128522 -107102
150661 112995 -94163
130381 97785 -81488
110603 82952 -69127
91401 68551 -57126
72842 54631 -45526
54986 41239 -34366
37892 28419 -23682
21615 16211 -13509
6202 4652 -3876
-8303 -6227 5189
-21869 -16402 13668
-34468 -25851 21542
-46079 -34559 28799
-56688 -42516 35430
-66288 -49716 41430
-74879 -56159 46799
-82466 -61850 51541
-89062 -66796 55663
-94684 -71013 59177
-99358 -74518 62098
-103116 -77337 64448
-105998 -79499 66249
-108050 -81037 67531
-109323 -81992 68327
-109871 -82403 68669
-109662 -82246 68539
-108741 -81555 67963
-107186 -80389 66991
-105075 -78806 65672
-102482 -76861 64051
-99477 -74607 62173
-96128 -72096 60080
-92501 -69375 57813
-88657 -66493 55410
-84656 -63492 52910
-80553 -60415 50345
-76383 -57287 47739
-72174 -54130 45109
-67950 -50963 42469
-63734 -47800 39833
-59542 -44657 37214
-55393 -41545 34620
-51298 -38473 32061
-47267 -35450 29542
-43308 -32481 27067
-39427 -29570 24642
-35647 -26735 22279
-31993 -23995 19996
-28489 -21367 17805
-25154 -18865 15721
-22006 -16504 13754
-19059 -14294 11912
-16325 -12244 10203
-13813 -10360 8633
-11528 -8646 7205
-9471 -7103 5919
-7625 -5718 4765
-5965 -4473 3728
-4462 -3346 2788
-3088 -2316 1930
-1831 -1373 1144
-674 -505 421
401 301 -251
1413 1059 -883
2376 1782 -1485
3305 2478 -2065
4198 3148 -2624
5047 3785 -3154
5841 4381 -3651
6572 4929 -4108
7231 5423 -4519
7806 5855 -4879
8289 6217 -5181
8669 6501 -5418
8935 6701 -5584
9080 6810 -5675
9118 6838 -5699
9074 6805 -5671
8970 6728 -5606
8831 6623 -5519
8678 6508 -5423
8534 6401 -5334
8423 6317 -5264
8366 6275 -5229
8386 6289 -5241
8500 6375 -5312
8706 6529 -5441
8991 6743 -5619
9343 7007 -5839
9749 7312 -6093
10196 7647 -6372
10671 8003 -6669
11160 8370 -6975
11649 8736 -7280
12124 9093 -7577
12574 9430 -7858
12998 9749 -8124
13404 10053 -8377
13796 10347 -8623
14181 10636 -8863
14564 10923 -9102
14950 11213 -9344
15344 11508 -9590
15750 11813 -9844
16175 12131 -10109
16632 12474 -10395
17119 12839 -10699
17633 13225 -11021
18168 13626 -11355
18719 14039 -11699
19281 14460 -12050
19848 14886 -12405
20416 15312 -12760
20979 15734 -13112
21532 16149 -13458
22072 16554 -13795
22600 16950 -14125
23123 17342 -14452
23647 17735 -14779
24177 18133 -15111
24720 18540 -15450
25282 18961 -15801
25867 19400 -16167
26483 19862 -16551
27134 20351 -16959
27827 20870 -17392
28559 21419 -17849
29330 21997 -18331
30134 22600 -18833
30969 23227 -19355
31832 23874 -19895
32721 24540 -20450
33631 25223 -21019
34560 25920 -21600
35505 26629 -22190
36463 27347 -22789
37439 28079 -23399
38440 28830 -24025
39471 29603 -24669
40540 30405 -25337
41654 31240 -26034
42819 32114 -26762
44042 33032 -27526
45330 33997 -28331
46689 35017 -29181
48124 36093 -30077
49620 37215 -31012
51157 38367 -31973
52712 39534 -32945
54265 40698 -33915
55793 41845 -34870
57276 42957 -35797
58691 44018 -36682
60018 45014 -37511
61236 45927 -38272
62334 46750 -38958
63328 47496 -39580
64251 48188 -40157
65136 48852 -40710
66013 49510 -41258
66915 50186 -41822
67873 50905 -42421
68920 51690 -43075
70088 52566 -43805
71408 53556 -44630
72906 54679 -45566
74563 55922 -46602
76343 57257 -47714
78209 58657 -48881
80124 60093 -50077
82050 61537 -51281
83951 62963 -52469
85789 64342 -53618
87528 65646 -54705
89131 66848 -55706
90566 67924 -56604
91851 68888 -57407
93023 69767 -58139
94118 70588 -58823
95172 71379 -59482
96223 72167 -60139
97307 72980 -60816
98460 73845 -61537
99720 74790 -62325
101123 75842 -63202
102701 77025 -64188
104440 78330 -65275
106312 79734 -66445
108287 81215 -67679
110335 82751 -68959
112426 84320 -70266
114531 85898 -71582
116620 87465 -72887
118663 88997 -74164
120630 90473 -75394
122496 91872 -76560
124266 93199 -77666
125955 94466 -78722
127582 95686 -79739
129163 96872 -80727
130717 98037 -81698
132259 99194 -82662
133807 100355 -83629
135378 101534 -84611
136990 102743 -85619
138657 103993 -86661
140375 105281 -87734
142130 106597 -88831
143909 107932 -89943
145701 109276 -91063
147492 110619 -92182
149269 111952 -93293
151020 113265 -94387
152732 114549 -95457
154392 115794 -96495
155988 116991 -97492
157523 118142 -98452
159003 119252 -99377
160436 120327 -100272
161828 121371 -101142
163186 122389 -101991
164517 123388 -102823
165829 124371 -103643
167127 125345 -104454
168420 126315 -105262
169712 127284 -106070
171002 128252 -106876
172285 129213 -107678
173554 130166 -108471
174805 131104 -109253
176032 132024 -110020
177229 132922 -110768
178392 133794 -111495
179513 134635 -112196
180589 135442 -112868
181614 136210 -113509
182587 136940 -114116
183507 137630 -114691
184374 138281 -115234
185190 138892 -115744
185954 139465 -116221
186665 139999 -116665
187325 140493 -117078
187932 140949 -117457
188488 141366 -117805
188992 141744 -118120
189445 142083 -118403
189844 142383 -118652
190190 142643 -118869
190483 142862 -119052
190721 143041 -119200
190904 143178 -119315
191032 143274 -119395
191104 143328 -119440
191119 143339 -119449
191077 143308 -119423
190983 143237 -119364
190841 143131 -119276
190657 142993 -119161
190436 142827 -119022
190184 142638 -118865
189904 142428 -118690
189596 142197 -118497
189266 141950 -118291
188923 141692 -118077
188573 141430 -117858
188214 141161 -117634
187843 140882 -117402
187454 140590 -117159
187043 140282 -116902
186607 139955 -116629
186139 139604 -116337
185636 139227 -116023
185094 138820 -115683
184507 138380 -115317
183872 137904 -114920
183184 137388 -114490
182441 136830 -114025
181638 136229 -113524
180774 135580 -112984
179844 134883 -112402
178846 134134 -111778
177775 133331 -111109
176629 132472 -110393
175404 131553 -109627
174098 130574 -108811
172720 129540 -107950
171280 128460 -107050
169793 127344 -106120
168269 126201 -105168
166721 125041 -104200
165162 123871 -103226
163603 122702 -102251
162056 121542 -101285
160535 120401 -100334
159049 119287 -99406
157599 118199 -98499
156176 117132 -97610
154777 116083 -96736
153395 115046 -95872
152023 114017 -95014
150656 112992 -94160
149288 111966 -93305
147912 110934 -92445
146523 109892 -91577
145115 108836 -90696
143682 107762 -89801
142222 106666 -88889
140730 105547 -87956
139202 104401 -87001
137634 103225 -86021
136022 102017 -85014
134363 100772 -83977
132652 99489 -82907
130884 98163 -81803
129058 96793 -80661
127176 95382 -79485
125246 93935 -78279
123275 92456 -77046
121268 90951 -75792
119234 89425 -74521
117178 87884 -73236
115108 86331 -71943
113031 84773 -70644
110953 83214 -69345
108881 81660 -68050
106820 80115 -66763
104778 78583 -65486
102759 77069 -64224
100770 75577 -62981
98816 74112 -61760
96903 72677 -60564
95037 71277 -59398
93223 69917 -58264
91467 68600 -57167
89774 67330 -56109
88141 66105 -55088
86559 64919 -54099
85022 63766 -53138
83522 62641 -52201
82052 61539 -51282
80605 60453 -50378
79172 59379 -49483
77748 58311 -48592
76323 57242 -47702
74892 56169 -46808
73456 55092 -45910
72017 54012 -45010
70579 52934 -44112
69146 51860 -43216
67722 50791 -42326
66309 49732 -41443
64912 48684 -40570
63534 47651 -39709
62179 46634 -38862
60849 45636 -38030
59543 44657 -37214
58258 43693 -36411
56990 42743 -35619
55737 41803 -34835
54495 40871 -34059
53260 39945 -33287
52029 39022 -32518
50799 38099 -31749
49567 37175 -30979
48329 36246 -30205
47088 35316 -29430
45850 34387 -28656
44618 33464 -27886
43399 32549 -27124
42196 31647 -26373
41016 30762 -25635
39862 29896 -24913
38740 29055 -24212
37654 28240 -23533
36609 27456 -22880
35603 26702 -22251
34631 25973 -21644
33689 25267 -21056
32773 24580 -20483
31879 23909 -19924
31000 23250 -19375
30135 22601 -18834
29277 21957 -18298
28422 21316 -17764
27567 20675 -17229
26714 20035 -16696
25868 19401 -16167
25035 18776 -15647
24220 18165 -15137
23428 17571 -14642
22664 16998 -14165
21933 16450 -13708
21241 15930 -13275
20591 15443 -12869
19988 14991 -12492
19428 14571 -12143
18904 14178 -11815
18405 13804 -11503
17926 13444 -11203
17457 13092 -10910
16990 12743 -10619
16518 12388 -10324
16033 12024 -10020
15525 11644 -9703
14990 11242 -9368
14431 10823 -9019
13861 10396 -8663
13291 9968 -8307
12731 9548 -7956
12192 9144 -7620
11686 8764 -7303
11223 8417 -7014
10816 8112 -6760
10474 7855 -6546
10207 7655 -6379
10007 7505 -6254
9857 7393 -6161
9744 7308 -6090
9649 7237 -6031
9558 7168 -5974
9454 7091 -5909
9323 6992 -5826
9147 6860 -5716
8911 6683 -5569
8601 6451 -5376
8225 6169 -5141
7800 5850 -4875
7341 5505 -4588
6865 5148 -4290
6389 4792 -3993
5930 4447 -3706
5503 4127 -3439
5126 3845 -3204
4816 3612 -3010
4587 3440 -2867
4439 3329 -2774
4367 3275 -2729
4365 3273 -2728
4425 3319 -2766
4543 3407 -2839
4712 3534 -2945
4925 3693 -3078
5177 3882 -3235
5461 4095 -3413
5771 4328 -3607
6098 4573 -3811
6431 4823 -4019
6760 5070 -4225
7074 5306 -4421
7364 5523 -4602
7618 5713 -4761
7826 5870 -4891
7978 5984 -4986
8064 6048 -5040
8074 6055 -5046
8013 6009 -5008
7891 5918 -4931
7718 5789 -4824
7506 5629 -4691
7265 5448 -4540
7004 5253 -4378
6736 5052 -4210
6470 4852 -4043
6216 4662 -3885
5985 4489 -3741
5780 4335 -3612
5599 4199 -3499
5442 4082 -3401
5309 3982 -3318
5199 3899 -3249
5112 3834 -3195
5046 3784 -3154
5002 3751 -3126
4979 3734 -3111
4975 3731 -3109
4991 3743 -3119
5022 3767 -3139
5068 3801 -3167
5126 3844 -3204
5194 3895 -3246
5269 3952 -3293
5350 4012 -3344
5435 4076 -3396
5520 4140 -3450
5605 4204 -3503
5688 4266 -3555
5768 4326 -3605
5844 4383 -3652
5915 4436 -3697
5980 4485 -3737
6038 4528 -3773
6088 4566 -3805
6129 4597 -3831
6161 4621 -3850
6182 4636 -3863
6193 4645 -3871
6197 4647 -3873
6194 4645 -3871
6186 4639 -3866
6175 4631 -3859
6164 4623 -3852
6152 4614 -3845
6143 4607 -3839
6137 4603 -3836
6137 4603 -3835
6141 4606 -3838
6148 4611 -3842
6155 4616 -3847
6161 4620 -3850
6163 4622 -3852
6161 4620 -3850
6151 4613 -3844
6133 4599 -3833
6103 4577 -3814
6061 4546 -3788
6010 4508 -3756
5955 4466 -3721
5899 4424 -3687
5849 4386 -3655
5808 4356 -3630
5781 4336 -3613
5774 4331 -3609
5792 4344 -3620
5838 4379 -3649
5918 4438 -3699
6026 4520 -3766
6154 4616 -3846
6294 4720 -3934
6436 4827 -4022
6572 4929 -4108
6694 5021 -4184
6793 5095 -4245
6860 5145 -4287
6886 5165 -4304
6865 5149 -4291
6803 5102 -4252
6712 5034 -4195
6604 4953 -4128
6493 4870 -4058
6391 4793 -3994
6310 4733 -3944
6264 4698 -3915
6264 4698 -3915
6323 4742 -3952
6452 4839 -4033
6646 4985 -4154
6892 5169 -4307
7175 5381 -4484
7484 5613 -4677
7803 5852 -4877
8121 6091 -5076
8424 6318 -5265
8698 6523 -5436
8931 6698 -5581
9109 6832 -5693
9235 6926 -5771
9313 6984 -5820
9350 7012 -5844
9353 7015 -5845
9327 6995 -5829
9280 6960 -5800
9217 6913 -5761
9145 6859 -5715
9069 6802 -5668
8997 6748 -5623
8932 6699 -5582
8878 6658 -5548
8837 6628 -5523
8814 6611 -5509
8812 6609 -5507
8834 6625 -5521
8883 6662 -5551
8962 6722 -5601
9076 6807 -5672
9226 6919 -5766
9407 7055 -5879
9609 7206 -6005
9822 7366 -6138
10036 7527 -6273
10243 7682 -6401
10431 7823 -6519
10591 7943 -6619
10713 8035 -6696
10788 8091 -6742
10807 8105 -6754
10776 8082 -6735
10704 8028 -6690
10604 7953 -6627
10487 7865 -6554
10364 7773 -6478
10247 7685 -6404
10147 7610 -6342
10075 7556 -6297
10042 7531 -6276
10059 7544 -6287
10125 7593 -6328
10232 7674 -6395
10376 7782 -6485
10548 7911 -6592
10742 8057 -6714
10953 8214 -6845
11172 8379 -6982
11394 8546 -7121
11612 8709 -7257
11820 8865 -7387
12014 9010 -7508
12191 9143 -7619
12351 9263 -7719
12489 9367 -7806
12605 9453 -7878
12695 9521 -7934
12758 9569 -7974
12792 9594 -7995
12793 9595 -7995
12761 9571 -7976
12704 9528 -7940
12632 9474 -7895
12558 9419 -7849
12494 9371 -7809
12452 9339 -7782
12442 9332 -7776
12478 9359 -7799
12572 9429 -7857
12733 9550 -7958
12973 9730 -8108
13277 9958 -8298
13618 10213 -8511
13968 10476 -8730
14303 10727 -8939
14594 10945 -9121
14815 11111 -9259
14939 11204 -9337
14940 11205 -9338
14791 11093 -9244
14470 10853 -9044
13998 10498 -8749
13417 10062 -8385
12769 9577 -7981
12098 9074 -7561
11446 8585 -7154
10856 8142 -6785
10371 7778 -6482
10033 7524 -6270
9884 7413 -6177
9963 7472 -6226
10254 7690 -6409
10718 8038 -6699
11314 8485 -7071
12002 9001 -7501
12741 9555 -7963
13490 10117 -8431
14209 10656 -8880
14855 11141 -9284
15388 11541 -9617
15773 11829 -9858
16012 12009 -10007
16130 12097 -10081
16149 12112 -10093
16094 12071 -10059
15989 11991 -9993
15856 11892 -9910
15721 11791 -9825
15606 11705 -9754
15536 11652 -9710
15531 11648 -9707
15593 11695 -9746
15711 11783 -9819
15874 11905 -9921
16072 12054 -10045
16295 12221 -10184
16531 12398 -10332
16771 12578 -10482
17004 12753 -10627
17219 12914 -10762
17408 13056 -10880
17569 13176 -10980
17707 13280 -11067
17828 13371 -11142
17935 13451 -11209
18034 13525 -11271
18129 13597 -11330
18225 13669 -11390
18327 13745 -11454
18439 13829 -11524
18565 13924 -11603
18710 14032 -11693
18873 14154 -11795
19057 14292 -11910
19263 14447 -12039
19492 14619 -12183
19748 14811 -12342
20030 15022 -12518
20340 15255 -12713
20681 15511 -12926
21054 15790 -13158
21456 16092 -13410
21885 16414 -13678
22339 16754 -13962
22814 17110 -14258
23307 17480 -14567
23816 17862 -14885
24337 18253 -15210
24868 18651 -15542
25405 19054 -15878
25947 19460 -16217
26496 19872 -16560
27058 20293 -16911
27639 20729 -17274
28245 21184 -17653
28881 21661 -18051
29554 22166 -18471
30269 22702 -18918
31032 23274 -19395
31848 23886 -19905
32723 24542 -20452
33650 25237 -21031
34614 25960 -21634
35603 26702 -22252
36604 27453 -22878
37604 28203 -23502
38588 28941 -24118
39545 29659 -24715
40460 30345 -25287
41321 30990 -25825
42116 31587 -26322
42859 32144 -26787
43575 32681 -27234
44290 33218 -27681
45030 33772 -28143
45819 34364 -28637
46685 35014 -29178
47652 35739 -29782
48746 36559 -30466
49993 37495 -31245
51427 38570 -32141
53043 39782 -33152
54814 41111 -34259
56714 42535 -35446
58715 44036 -36696
60788 45591 -37993
62908 47181 -39318
65048 48786 -40655
67179 50384 -41987
69275 51956 -43297
71311 53483 -44569
73283 54962 -45802
75197 56397 -46998
77058 57793 -48161
78874 59155 -49296
80651 60488 -50406
82395 61796 -51496
84113 63084 -52570
85811 64358 -53632
87497 65623 -54686
89177 66883 -55735
90855 68141 -56784
92534 69400 -57833
94216 70662 -58885
95906 71929 -59941
97605 73204 -61003
99318 74488 -62073
101046 75785 -63154
102795 77096 -64246
104566 78424 -65353
106361 79771 -66476
108171 81128 -67606
109975 82481 -68734
111756 83817 -69847
113496 85122 -70935
115175 86381 -71984
116777 87583 -72985
118283 88712 -73926
119674 89755 -74796
120933 90700 -75583
122044 91533 -76277
123012 92259 -76882
123853 92890 -77408
124585 93438 -77865
125222 93916 -78264
125783 94337 -78614
126283 94712 -78927
126739 95054 -79212
127169 95377 -79481
127590 95692 -79743
128015 96011 -80009
128440 96330 -80275
128851 96638 -80532
129232 96924 -80770
129567 97175 -80979
129841 97381 -81151
130040 97530 -81275
130148 97611 -81342
130150 97612 -81343
130030 97523 -81269
129777 97333 -81111
129398 97049 -80874
128912 96684 -80570
128337 96253 -80210
127693 95770 -79808
126999 95249 -79374
126273 94705 -78920
125536 94152 -78460
124806 93604 -78004
124103 93077 -77564
123444 92583 -77152
122817 92113 -76761
122199 91649 -76374
121562 91172 -75976
120884 90663 -75552
120137 90102 -75085
119297 89472 -74560
118338 88754 -73961
117237 87927 -73273
115967 86975 -72479
114508 85881 -71567
112871 84653 -70544
111087 83315 -69429
109192 81894 -68245
107219 80414 -67012
105201 78901 -65751
103172 77379 -64482
101164 75873 -63227
99211 74408 -62007
97345 73009 -60841
95597 71697 -59748
93964 70473 -58727
92430 69322 -57768
90975 68231 -56859
89580 67185 -55987
88228 66171 -55142
86899 65174 -54312
85574 64181 -53484
84235 63176 -52647
82863 62147 -51789
81440 61080 -50900
79960 59970 -49975
78426 58819 -49016
76839 57629 -48024
75202 56401 -47001
73516 55137 -45947
71783 53837 -44864
70004 52503 -43752
68181 51136 -42613
66316 49737 -41447
64411 48308 -40257
62474 46856 -39046
60520 45390 -37825
58561 43921 -36601
56611 42458 -35382
54684 41013 -34177
52791 39593 -32994
50946 38209 -31841
49163 36872 -30726
47453 35590 -29658
45829 34371 -28643
44291 33218 -27682
42833 32125 -26770
41449 31087 -25906
40133 30100 -25083
38879 29159 -24299
37681 28260 -23550
36531 27398 -22832
35424 26568 -22140
34354 25765 -21471
33314 24985 -20821
32301 24225 -20188
31316 23487 -19572
30357 22768 -18973
29426 22069 -18391
28521 21391 -17825
27642 20731 -17276
26787 20090 -16742
25958 19468 -16223
25152 18864 -15720
24369 18277 -15231
23609 17707 -14756
22872 17154 -14295
22159 16619 -13849
21468 16101 -13417
20800 15600 -13000
20154 15115 -12596
19531 14648 -12207
18930 14198 -11831
18351 13763 -11469
17794 13345 -11121
17256 12942 -10785
16739 12554 -10462
16240 12180 -10150
15760 11820 -9850
15298 11474 -9561
14856 11142 -9285
14431 10823 -9019
14024 10518 -8765
13633 10225 -8520
13256 9942 -8285
12890 9668 -8056
12531 9398 -7832
12175 9131 -7609
11815 8861 -7384
11448 8586 -7155
11067 8300 -6917
10667 8000 -6667
10243 7682 -6402
9787 7340 -6117
9294 6970 -5809
8761 6570 -5475
8187 6140 -5116
7570 5678 -4731
6911 5183 -4319
6206 4654 -3878
5454 4090 -3408
4653 3489 -2908
3800 2850 -2375
2892 2169 -1807
1926 1445 -1204
892 669 -557
-225 -169 141
-1442 -1081 901
-2773 -2079 1733
-4233 -3175 2646
-5837 -4378 3648
-7590 -5692 4744
-9496 -7122 5935
-11556 -8667 7222
-13771 -10328 8606
-16130 -12097 10081
-18618 -13964 11636
-21220 -15915 13262
-23916 -17937 14947
-26685 -20014 16678
-29506 -22129 18441
-32354 -24265 20221
-35203 -26402 22002
-38026 -28519 23766
-40793 -30595 25496
-43478 -32608 27174
-46054 -34540 28784
-48493 -36369 30308
-50764 -38073 31728
-52837 -39628 33023
-54677 -41008 34173
-56249 -42187 35155
-57516 -43137 35947
-58438 -43828 36523
-58975 -44231 36859
-59082 -44311 36926
-58714 -44036 36696
-57823 -43367 36139
-56360 -42270 35225
-54271 -40703 33919
-51533 -38649 32208
-48210 -36158 30131
-44247 -33185 27654
-39578 -29683 24736
-34145 -25609 21340
-27895 -20921 17434
-20779 -15584 12987
-12759 -9569 7974
-3802 -2851 2376
6113 4585 -3821
17002 12751 -10626
28869 21651 -18043
41711 31283 -26069
55516 41637 -34697
70262 52697 -43914
85906 64429 -53691
102384 76788 -63990
119626 89719 -74766
137552 103164 -85970
156075 117056 -97547
175098 131324 -109436
194517 145888 -121573
214217 160663 -133886
234077 175558 -146298
253967 190475 -158729
273770 205327 -171106
293371 220028 -183357
312647 234485 -195404
331466 248599 -207166
349687 262265 -218554
367163 275372 -229477
383735 287801 -239834
399260 299445 -249537
413613 310210 -258508
426672 320004 -266670
438314 328736 -273946
448426 336319 -280266
456907 342680 -285566
463672 347754 -289795
468651 351488 -292907
471791 353843 -294869
473050 354788 -295656
472406 354304 -295254
469848 352386 -293655
465383 349037 -290864
459036 344277 -286897
450847 338135 -281779
440876 330657 -275547
429194 321896 -268246
415889 311917 -259930
401063 300797 -250664
384834 288625 -240521
367334 275501 -229584
348712 261534 -217945
329130 246847 -205706
308763 231572 -192977
287799 215849 -179874
266442 199832 -166526
244911 183683 -153069
223427 167570 -139642
202051 151538 -126282
180852 135639 -113032
159926 119945 -99954
139362 104522 -87101
119243 89432 -74527
99657 74743 -62285
80692 60519 -50432
62429 46822 -39018
44943 33707 -28089
28302 21226 -17688
12567 9425 -7854
-2208 -1656 1380
-15976 -11982 9985
-28697 -21523 17935
-40338 -30253 25211
-50888 -38166 31805
-60354 -45266 37721
-68747 -51560 42967
-76088 -57066 47555
-82400 -61800 51500
-87719 -65789 54824
-92083 -69062 57552
-95539 -71654 59712
-98141 -73606 61338
-99947 -74960 62467
-101016 -75762 63135
-101405 -76054 63378
-101127 -75845 63204
-100175 -75131 62609
-98616 -73962 61635
-96518 -72388 60324
-93942 -70456 58713
-90947 -68210 56842
-87590 -65693 54744
-83925 -62944 52453
-80005 -60003 50003
-75880 -56910 47425
-71599 -53699 44749
-67208 -50406 42005
-62749 -47061 39218
-58260 -43695 36412
-53779 -40334 33611
-49337 -37003 30836
-44966 -33725 28104
-40693 -30519 25433
-36543 -27407 22839
-32543 -24407 20339
-28712 -21534 17945
-25070 -18803 15669
-21633 -16224 13520
-18412 -13809 11507
-15418 -11563 9636
-12656 -9492 7910
-10130 -7598 6331
-7841 -5880 4900
-5778 -4334 3611
-3927 -2945 2454
-2270 -1702 1418
-783 -587 489
555 416 -347
1775 1331 -1109
2896 2172 -1810
3923 2942 -2451
4870 3652 -3043
5751 4313 -3594
6573 4930 -4108
7339 5504 -4587
8051 6038 -5032
8712 6534 -5445
9324 6993 -5827
9888 7416 -6180
10406 7804 -6503
10879 8159 -6799
11309 8482 -7068
11696 8772 -7310
12040 9030 -7525
12342 9256 -7713
12601 9451 -7876
12818 9614 -8011
12992 9744 -8120
13121 9841 -8201
13206 9904 -8253
13243 9932 -8277
13233 9924 -8270
13173 9880 -8233
13074 9805 -8171
12952 9714 -8095
12823 9617 -8014
12703 9527 -7939
12609 9457 -7880
12555 9416 -7847
12557 9418 -7848
12630 9472 -7893
12787 9590 -7992
13043 9782 -8152
13392 10044 -8370
13814 10361 -8634
14294 10720 -8933
14811 11108 -9257
15348 11511 -9592
15885 11914 -9928
16404 12303 -10252
16885 12663 -10553
17311 12983 -10819
17674 13255 -11046
17979 13484 -11237
18244 13683 -11402
18487 13865 -11554
18725 14043 -11703
18975 14231 -11859
19257 14442 -12035
19587 14690 -12241
19982 14987 -12489
20462 15346 -12789
21041 15781 -13150
21712 16284 -13570
22454 16841 -14034
23246 17434 -14528
24065 18048 -15040
24889 18667 -15556
25698 19273 -16061
26469 19852 -16543
27181 20385 -16988
27812 20859 -17382
28342 21256 -17714
28780 21585 -17988
29152 21864 -18220
29484 22113 -18427
29801 22350 -18625
30129 22597 -18830
30495 22871 -19059
30924 23193 -19327
31442 23581 -19651
32075 24056 -20047
32847 24635 -20529
33756 25317 -21097
34783 26087 -21739
35909 26932 -22443
37116 27837 -23197
38384 28788 -23990
39695 29771 -24809
41030 30772 -25643
42370 31777 -26481
43696 32772 -27310
44991 33743 -28119
46249 34686 -28905
47472 35604 -29670
48664 36498 -30415
49827 37370 -31142
50964 38223 -31852
52078 39058 -32549
53174 39880 -33233
54253 40690 -33908
55319 41489 -34574
56373 42280 -35233
57426 43070 -35891
58490 43868 -36556
59580 44685 -37237
60707 45530 -37941
61885 46414 -38678
63128 47346 -39455
64449 48337 -40281
65861 49396 -41163
67378 50533 -42111
69011 51758 -43131
70749 53062 -44218
72570 54427 -45356
74450 55837 -46531
76365 57273 -47728
78290 58718 -48931
80203 60152 -50127
82080 61560 -51300
83896 62922 -52435
85628 64221 -53517
87254 65441 -54534
88778 66583 -55486
90217 67663 -56386
91593 68695 -57245
92924 69693 -58077
94230 70672 -58893
95530 71647 -59706
96843 72632 -60527
98190 73642 -61369
99589 74692 -62243
101059 75794 -63162
102601 76950 -64125
104206 78154 -65128
105865 79399 -66166
107570 80678 -67231
109312 81984 -68320
111080 83310 -69425
112867 84650 -70541
114662 85997 -71664
116458 87344 -72786
118246 88684 -73903
120020 90015 -75013
121782 91336 -76114
123530 92647 -77206
125263 93947 -78289
126980 95235 -79362
128682 96511 -80426
130366 97775 -81479
132033 99025 -82521
133682 100261 -83551
135312 101484 -84570
136923 102692 -85577
138518 103888 -86574
140098 105074 -87561
141666 106249 -88541
143222 107416 -89514
144769 108577 -90480
146308 109731 -91442
147842 110881 -92401
149371 112028 -93357
150898 113173 -94311
152423 114317 -95264
153950 115462 -96218
155477 116608 -97173
157008 117756 -98130
158543 118907 -99089
160083 120062 -100052
161631 121223 -101019
163186 122389 -101991
164751 123563 -102969
166325 124744 -103953
167900 125925 -104937
169460 127095 -105913
170990 128242 -106868
172473 129354 -107795
173893 130420 -108683
175236 131427 -109523
176486 132364 -110303
177626 133219 -111016
178641 133981 -111650
179517 134638 -112198
180261 135195 -112663
180893 135670 -113058
181435 136076 -113397
181908 136431 -113692
182332 136749 -113957
182729 137046 -114205
183119 137339 -114449
183524 137643 -114702
183965 137973 -114978
184462 138346 -115288
185011 138758 -115631
185591 139193 -115994
186181 139636 -116363
186761 140071 -116725
187310 140482 -117068
187806 140855 -117379
188230 141172 -117644
188560 141420 -117850
188776 141582 -117985
188858 141643 -118036
188809 141607 -118006
188646 141485 -117904
188385 141289 -117741
188044 141033 -117527
187639 140729 -117274
187188 140391 -116992
186706 140030 -116691
186212 139659 -116382
185722 139291 -116076
185252 138939 -115782
184802 138601 -115501
184362 138271 -115226
183921 137940 -114950
183468 137601 -114667
182993 137245 -114371
182486 136864 -114053
181935 136451 -113709
181332 135999 -113332
180664 135498 -112915
179922 134941 -112451
179105 134329 -111941
178219 133664 -111387
177269 132952 -110793
176259 132194 -110162
175196 131397 -109497
174084 130563 -108802
172929 129697 -108081
171736 128802 -107335
170510 127883 -106569
169257 126943 -105786
167982 125987 -104989
166691 125018 -104182
165389 124042 -103368
164082 123061 -102551
162775 122081 -101734
161474 121106 -100921
160185 120139 -100115
158913 119185 -99320
157664 118248 -98540
156442 117332 -97776
155241 116431 -97026
154045 115533 -96278
152837 114628 -95523
151604 113703 -94752
150328 112746 -93955
148995 111746 -93122
147589 110692 -92243
146095 109571 -91309
144496 108372 -90310
142779 107084 -89237
140949 105711 -88093
139021 104266 -86888
137014 102761 -85634
134945 101209 -84340
132830 99623 -83019
130688 98016 -81680
128535 96401 -80334
126388 94791 -78992
124265 93198 -77665
122182 91636 -76363
120142 90107 -75089
118141 88606 -73838
116173 87130 -72608
114232 85674 -71395
112314 84235 -70196
110412 82809 -69007
108522 81391 -67826
106638 79979 -66649
104755 78566 -65472
102868 77151 -64292
100976 75732 -63110
99079 74309 -61924
97179 72884 -60737
95277 71457 -59548
93373 70030 -58358
91471 68603 -57169
89569 67177 -55981
87671 65753 -54794
85776 64332 -53610
83886 62915 -52429
82004 61503 -51252
80130 60098 -50081
78267 58700 -48917
76413 57309 -47758
74568 55926 -46605
72734 54551 -45459
70912 53184 -44320
69104 51828 -43190
67309 50481 -42068
65529 49147 -40955
63767 47825 -39854
62025 46519 -38765
60307 45230 -37692
58615 43961 -36634
56954 42715 -35596
55325 41493 -34578
53731 40298 -33582
52177 39133 -32610
50664 37998 -31665
49196 36897 -30748
47773 35830 -29858
46394 34795 -28996
45057 33792 -28160
43760 32820 -27350
42502 31877 -26564
41282 30962 -25801
40099 30074 -25061
38949 29212 -24343
37833 28375 -23646
36749 27561 -22968
35690 26767 -22306
34650 25987 -21656
33620 25215 -21013
32594 24445 -20371
31563 23672 -19727
30520 22890 -19075
29457 22093 -18411
28366 21275 -17729
27240 20430 -17025
26071 19553 -16294
24865 18648 -15540
23633 17724 -14770
22388 16791 -13992
21142 15856 -13214
19909 14931 -12443
18700 14025 -11687
17528 13146 -10955
16405 12304 -10253
15345 11509 -9590
14358 10769 -8974
13443 10082 -8401
12587 9440 -7867
11779 8834 -7362
11008 8256 -6880
10262 7696 -6413
9528 7146 -5955
8795 6596 -5496
8051 6038 -5032
7284 5463 -4553
6484 4863 -4053
5654 4241 -3534
4807 3605 -3004
3955 2966 -2471
3111 2333 -1944
2290 1717 -1431
1504 1128 -940
765 574 -478
88 66 -55
-514 -386 321
-1032 -774 645
-1466 -1099 916
-1830 -1372 1144
-2138 -1603 1336
-2403 -1802 1502
-2639 -1979 1649
-2859 -2144 1786
-3077 -2307 1923
-3306 -2479 2066
-3560 -2670 2225
-3852 -2889 2408
-4184 -3138 2615
-4549 -3411 2843
-4939 -3704 3087
-5350 -4013 3344
-5775 -4331 3609
-6206 -4654 3878
-6637 -4978 4148
-7062 -5297 4414
-7475 -5606 4672
-7868 -5901 4918
-8236 -6177 5147
-8569 -6426 5355
-8858 -6644 5536
-9097 -6823 5685
-9277 -6958 5798
-9391 -7043 5869
-9431 -7073 5894
-9390 -7042 5869
-9259 -6944 5787
-9034 -6775 5646
-8728 -6546 5455
-8375 -6281 5234
-8005 -6004 5003
-7650 -5737 4781
-7342 -5506 4588
-7112 -5334 4445
-6993 -5244 4370
-7015 -5261 4384
-7211 -5408 4506
-7608 -5706 4755
-8195 -6146 5122
-8929 -6697 5580
-9766 -7324 6103
-10663 -7997 6664
-11577 -8683 7235
-12465 -9348 7790
-13283 -9962 8301
-13988 -10491 8742
-14536 -10902 9085
-14889 -11166 9305
-15045 -11284 9403
-15036 -11277 9397
-14892 -11169 9307
-14643 -10982 9152
-14321 -10741 8951
-13957 -10468 8723
-13581 -10186 8488
-13224 -9918 8265
-12918 -9688 8073
-12690 -9517 7931
-12546 -9410 7841
-12476 -9357 7797
-12467 -9350 7792
-12508 -9381 7817
-12586 -9439 7866
-12690 -9518 7931
-12808 -9606 8005
-12929 -9696 8080
-13040 -9780 8150
-13129 -9847 8206
-13197 -9898 8248
-13247 -9935 8279
-13286 -9964 8304
-13319 -9989 8324
-13351 -10013 8344
-13388 -10041 8368
-13436 -10077 8397
-13499 -10124 8437
-13584 -10188 8490
-13696 -10272 8560
-13831 -10373 8644
-13981 -10486 8738
-14139 -10604 8837
-14296 -10722 8935
-14444 -10833 9027
-14575 -10931 9109
-14679 -11009 9174
-14750 -11062 9219
-14779 -11084 9236
-14757 -11068 9223
-14689 -11016 9180
-14583 -10937 9114
-14450 -10837 9031
-14300 -10725 8937
-14142 -10607 8839
-13988 -10491 8742
-13847 -10385 8654
-13730 -10297 8581
-13646 -10234 8528
-13604 -10203 8502
-13604 -10203 8502
-13637 -10228 8523
-13694 -10270 8558
-13765 -10324 8603
-13842 -10381 8651
-13915 -10436 8697
-13976 -10482 8735
-14016 -10512 8760
-14026 -10519 8766
-13996 -10497 8748
-13930 -10448 8706
-13837 -10377 8648
-13725 -10293 8578
-13604 -10203 8502
-13484 -10113 8428
-13375 -10031 8359
-13285 -9964 8303
-13224 -9918 8265
-13202 -9901 8251
-13227 -9920 8267
-13297 -9973 8311
-13404 -10053 8377
-13538 -10153 8461
-13689 -10266 8555
-13847 -10385 8654
-14004 -10503 8752
-14150 -10612 8843
-14274 -10706 8921
-14369 -10776 8980
-14423 -10817 9014
-14437 -10828 9023
-14412 -10809 9008
-14353 -10765 8970
-14262 -10697 8914
-14143 -10607 8839
-14000 -10500 8750
-13835 -10376 8647
-13653 -10240 8533
-13456 -10092 8410
-13248 -9936 8280
-13036 -9777 8147
-12829 -9621 8018
-12635 -9476 7897
-12465 -9348 7790
-12326 -9244 7703
-12228 -9171 7642
-12180 -9135 7612
-12191 -9143 7619
-12270 -9202 7669
-12425 -9319 7766
-12649 -9486 7905
-12922 -9691 8076
-13226 -9919 8266
-13541 -10156 8463
-13849 -10387 8655
-14129 -10597 8831
-14364 -10773 8977
-14533 -10899 9083
-14617 -10963 9135
-14599 -10949 9124
-14482 -10861 9051
-14284 -10713 8927
-14024 -10518 8765
-13722 -10291 8576
-13396 -10047 8372
-13066 -9799 8166
-12750 -9562 7968
-12467 -9350 7792
-12238 -9178 7648
-12078 -9058 7549
-11990 -8992 7494
-11961 -8971 7476
-11980 -8985 7487
-12033 -9025 7521
-12110 -9082 7568
-12196 -9147 7623
-12281 -9211 7676
-12352 -9264 7720
-12397 -9298 7748
-12404 -9303 7752
-12374 -9281 7734
-12318 -9239 7699
-12247 -9185 7654
-12172 -9129 7607
-12102 -9076 7564
-12049 -9037 7531
-12024 -9018 7515
-12037 -9028 7523
-12100 -9075 7562
-12221 -9166 7638
-12395 -9296 7747
-12605 -9454 7878
-12833 -9625 8020
-13061 -9796 8163
-13271 -9953 8294
-13446 -10084 8404
-13568 -10176 8480
-13618 -10214 8511
-13580 -10185 8487
-13437 -10078 8398
-13195 -9896 8247
-12878 -9658 8048
-12509 -9382 7818
-12113 -9085 7571
-11714 -8785 7321
-11335 -8501 7084
-11001 -8251 6876
-10736 -8052 6710
-10563 -7922 6602
-10505 -7879 6566
-10562 -7921 6601
-10716 -8037 6698
-10950 -8213 6844
-11246 -8434 7028
-11585 -8689 7240
-11950 -8962 7469
-12323 -9242 7702
-12686 -9514 7928
-13020 -9765 8138
-13310 -9982 8319
-13548 -10161 8467
-13736 -10302 8585
-13876 -10407 8673
-13971 -10478 8732
-14022 -10516 8764
-14032 -10524 8770
-14002 -10501 8751
-13934 -10450 8709
-13831 -10373 8644
-13695 -10271 8559
-13527 -10145 8454
-13330 -9997 8331
-13105 -9828 8190
-12853 -9640 8033
-12577 -9433 7861
-12279 -9209 7674
-11959 -8969 7474
-11620 -8715 7263
-11264 -8448 7040
-10893 -8170 6808
-10516 -7887 6572
-10146 -7609 6341
-9797 -7348 6123
-9485 -7114 5928
-9223 -6917 5764
-9024 -6768 5640
-8903 -6677 5564
-8873 -6655 5545
-8948 -6711 5593
-9142 -6856 5713
-9445 -7083 5903
-9834 -7375 6146
-10284 -7713 6427
-10771 -8078 6732
-11271 -8453 7044
-11759 -8819 7349
-12211 -9158 7632
-12603 -9452 7876
-12909 -9682 8068
-13107 -9830 8192
-13194 -9895 8246
-13182 -9887 8239
-13086 -9814 8178
-12917 -9688 8073
-12690 -9518 7931
-12418 -9314 7761
-12114 -9085 7571
-11791 -8843 7369
-11462 -8597 7164
-11141 -8355 6963
-10831 -8123 6769
-10530 -7898 6581
-10237 -7678 6398
-9950 -7462 6218
-9665 -7249 6040
-9381 -7036 5863
-9096 -6822 5685
-8807 -6605 5504
-8512 -6384 5320
-8209 -6157 5131
-7896 -5922 4935
-7570 -5677 4731
-7228 -5421 4518
-6869 -5152 4293
-6490 -4867 4056
-6088 -4566 3805
-5662 -4246 3538
-5208 -3906 3255
-4724 -3543 2952
-4208 -3156 2630
-3660 -2745 2287
-3083 -2312 1927
-2479 -1859 1549
-1852 -1389 1158
-1204 -903 753
-538 -403 336
143 107 -89
838 628 -524
1543 1157 -964
2257 1692 -1410
2978 2233 -1861
3710 2782 -2318
4454 3340 -2784
5214 3910 -3258
5991 4493 -3744
6787 5090 -4242
7606 5705 -4754
8450 6338 -5281
9321 6991 -5825
10221 7666 -6388
11154 8366 -6971
12123 9092 -7577
13133 9849 -8208
14190 10643 -8869
15299 11474 -9562
16459 12344 -10287
17673 13254 -11045
18941 14205 -11838
20264 15198 -12665
21645 16234 -13528
23079 17309 -14424
24560 18420 -15350
26079 19559 -16299
27629 20722 -17268
29204 21903 -18252
30796 23097 -19247
32397 24298 -20248
34001 25500 -21250
35599 26699 -22249
37185 27888 -23240
38758 29068 -24224
40323 30242 -25202
41886 31414 -26178
43450 32588 -27156
45022 33766 -28139
46606 34954 -29128
48206 36154 -30129
49828 37371 -31143
51477 38608 -32173
53157 39868 -33223
54865 41149 -34291
56591 42443 -35369
58326 43744 -36453
60059 45044 -37537
61781 46336 -38613
63482 47612 -39676
65153 48865 -40720
66783 50087 -41739
68363 51272 -42727
69883 52412 -43677
71346 53509 -44591
72764 54573 -45477
74149 55611 -46343
75512 56634 -47195
76867 57650 -48042
78224 58668 -48890
79597 59698 -49748
80996 60747 -50623
82435 61826 -51522
83923 62942 -52452
85449 64087 -53406
86984 65238 -54365
88495 66371 -55309
89954 67466 -56221
91330 68498 -57081
92592 69444 -57870
93710 70282 -58569
94653 70990 -59158
95391 71543 -59619
95895 71921 -59934
96175 72131 -60109
96273 72204 -60170
96228 72171 -60142
96084 72063 -60052
95881 71911 -59925
95661 71746 -59788
95466 71600 -59666
95338 71503 -59586
95317 71488 -59573
95443 71582 -59652
95710 71782 -59819
96077 72057 -60048
96499 72374 -60312
96937 72702 -60585
97350 73012 -60843
97700 73275 -61063
97951 73463 -61219
98062 73546 -61289
97997 73497 -61248
97718 73288 -61073
97220 72915 -60762
96524 72393 -60328
95652 71739 -59782
94623 70967 -59139
93461 70095 -58413
92184 69138 -57615
90816 68112 -56760
89377 67032 -55860
87888 65916 -54930
86369 64777 -53981
84833 63624 -53020
83281 62461 -52050
81717 61288 -51073
80144 60108 -50090
78564 58923 -49102
76981 57735 -48113
75397 56547 -47123
73815 55361 -46134
72238 54178 -45148
70668 53001 -44167
69105 51828 -43190
67545 50658 -42215
65983 49487 -41239
64418 48313 -40261
62844 47133 -39277
61257 45943 -38286
59654 44741 -37284
58032 43524 -36270
56385 42289 -35241
54711 41033 -34194
53007 39755 -33129
51272 38454 -32045
49505 37129 -30941
47706 35779 -29816
45873 34404 -28670
44005 33004 -27503
42102 31577 -26314
40163 30122 -25102
38186 28639 -23866
36171 27128 -22607
34127 25595 -21329
32069 24051 -20043
30012 22509 -18757
27974 20980 -17483
25969 19476 -16230
24013 18010 -15008
22123 16592 -13827
20314 15236 -12696
18603 13952 -11626
17003 12752 -10626
15514 11636 -9696
14125 10593 -8828
12820 9615 -8013
11588 8691 -7243
10415 7811 -6509
9287 6965 -5804
8191 6143 -5119
7113 5335 -4445
6033 4525 -3770
4924 3693 -3077
3783 2837 -2364
2619 1964 -1637
1438 1078 -899
248 186 -155
-943 -707 589
-2131 -1598 1332
-3307 -2480 2067
-4465 -3349 2791
-5599 -4199 3499
-6703 -5027 4189
-7772 -5829 4857
-8806 -6604 5504
-9803 -7352 6127
-10763 -8072 6726
-11683 -8762 7302
-12564 -9423 7852
-13405 -10054 8378
-14205 -10654 8878
-14965 -11224 9353
-15684 -11763 9802
-16362 -12271 10226
-16996 -12747 10623
-17587 -13190 10992
-18133 -13600 11333
-18634 -13975 11646
-19088 -14316 11930
-19495 -14621 12184
-19855 -14891 12409
-20168 -15126 12605
-20435 -15326 12772
-20661 -15496 12913
-20858 -15644 13036
-21039 -15779 13149
-21214 -15910 13258
-21396 -16047 13372
-21597 -16198 13498
-21830 -16372 13644
-22107 -16580 13817
-22442 -16831 14026
-22846 -17134 14279
-23322 -17491 14576
-23861 -17896 14913
-24458 -18343 15286
-25103 -18827 15689
-25792 -19344 16120
-26515 -19886 16572
-27267 -20450 17042
-28042 -21031 17526
-28832 -21624 18020
-29633 -22225 18521
-30455 -22841 19034
-31321 -23490 19575
-32255 -24191 20159
-33282 -24961 20801
-34426 -25820 21516
-35713 -26784 22320
-37166 -27874 23228
-38811 -29108 24257
-40673 -30505 25420
-42994 -32246 26871
-45937 -34452 28710
-49398 -37048 30873
-53278 -39958 33298
-57481 -43110 35925
-61913 -46434 38695
-66483 -49862 41552
-71106 -53329 44441
-75696 -56772 47310
-80172 -60129 50107
-84458 -63343 52786
-88486 -66365 55304
-92203 -69152 57627
-95555 -71666 59721
-98493 -73870 61558
-100972 -75729 63107
-102948 -77211 64342
-104382 -78286 65239
-105238 -78928 65773
-105481 -79111 65925
-105082 -78811 65676
-104016 -78012 65010
-102265 -76698 63915
-99812 -74859 62382
-96646 -72484 60403
-92756 -69567 57972
-88137 -66103 55085
-82785 -62089 51741
-76701 -57526 47938
-69887 -52415 43679
-62349 -46761 38968
-54087 -40565 33804
-45099 -33824 28187
-35383 -26537 22114
-24942 -18706 15588
-13781 -10336 8613
-1909 -1432 1193
10661 7996 -6663
23916 17937 -14948
37838 28379 -23649
52405 39304 -32753
67587 50690 -42241
83344 62508 -52090
99635 74726 -62272
116415 87311 -72759
133636 100227 -83522
151246 113435 -94529
169192 126894 -105745
187414 140561 -117134
205854 154390 -128659
224447 168335 -140279
243127 182345 -151954
261828 196371 -163643
280479 210359 -175299
299006 224255 -186879
317328 237996 -198330
335091 251318 -209432
351976 263982 -219985
367799 275849 -229874
382391 286793 -238994
395603 296702 -247252
407298 305474 -254561
417357 313018 -260848
425676 319257 -266047
432168 324126 -270105
436764 327573 -272978
439413 329560 -274633
440077 330058 -275048
438739 329054 -274212
435397 326548 -272123
430066 322549 -268791
422784 317088 -264240
413612 310209 -258507
402628 301971 -251642
389927 292445 -243704
375620 281715 -234762
359836 269877 -224898
342721 257040 -214200
324436 243327 -202772
305161 228871 -190725
285092 213819 -178182
264434 198325 -165271
243405 182554 -152128
222195 166646 -138872
200858 150644 -125536
179513 134635 -112195
158277 118708 -98923
137261 102946 -85788
116569 87427 -72856
96296 72222 -60185
76531 57398 -47831
57354 43015 -35846
38842 29132 -24276
21064 15798 -13165
4079 3059 -2549
-12059 -9044 7536
-27305 -20479 17066
-41622 -31216 26013
-54979 -41234 34361
-67352 -50514 42095
-78728 -59046 49205
-89096 -66822 55685
-98449 -73837 61531
-106791 -80093 66744
-114131 -85598 71332
-120486 -90365 75304
-125881 -94411 78676
-130349 -97762 81468
-133929 -100446 83705
-136669 -102501 85418
-138621 -103966 86638
-139748 -104811 87342
-140071 -105053 87544
-139665 -104748 87290
-138604 -103953 86627
-136959 -102719 85599
-134798 -101098 84248
-132185 -99139 82615
-129183 -96887 80739
-125851 -94388 78657
-122245 -91684 76403
-118416 -88812 74010
-114407 -85805 71504
-110259 -82694 68912
-106011 -79508 66257
-101699 -76274 63561
-97354 -73015 60846
-93006 -69754 58129
-88683 -66512 55427
-84408 -63306 52755
-80204 -60153 50127
-76096 -57072 47560
-72114 -54086 45071
-68286 -51214 42678
-64635 -48476 40397
-61184 -45888 38240
-57951 -43463 36219
-54952 -41214 34345
-52200 -39150 32625
-49706 -37279 31066
-47476 -35607 29672
-45500 -34125 28438
-43754 -32816 27346
-42209 -31657 26380
-40833 -30625 25520
-39586 -29690 24741
-38428 -28821 24018
-37334 -28001 23334
-36281 -27211 22675
-35245 -26433 22028
-34203 -25652 21377
-33152 -24864 20720
-32101 -24076 20063
-31064 -23298 19415
-30051 -22538 18782
-29075 -21806 18172
-28149 -21112 17593
-27285 -20464 17053
-26496 -19872 16560
-25794 -19345 16121
-25192 -18894 15745
-24691 -18518 15432
-24285 -18214 15178
-23966 -17974 14978
-23725 -17794 14828
-23556 -17667 14722
-23452 -17589 14657
-23404 -17553 14627
-23406 -17555 14629
-23452 -17589 14657
-23534 -17650 14709
-23644 -17733 14777
-23770 -17827 14856
-23902 -17926 14939
-24030 -18022 15018
-24142 -18106 15089
-24229 -18172 15143
-24281 -18210 15175
-24287 -18215 15179
-24238 -18178 15148
-24123 -18092 15077
-23944 -17958 14965
-23704 -17778 14815
-23413 -17559 14633
-23076 -17307 14422
-22700 -17025 14187
-22294 -16721 13934
-21865 -16398 13665
-21420 -16065 13387
-20967 -15725 13104
-20514 -15385 12821
-20062 -15046 12538
-19607 -14705 12254
-19145 -14358 11965
-18671 -14003 11669
-18182 -13636 11364
-17674 -13255 11046
-17143 -12857 10714
-16585 -12439 10366
-15998 -11998 9998
-15377 -11533 9611
-14728 -11046 9205
-14059 -10544 8787
-13381 -10036 8363
-12705 -9529 7941
-12041 -9031 7526
-11397 -8548 7123
-10772 -8079 6732
-10173 -7630 6358
-9608 -7206 6005
-9085 -6814 5678
-8600 -6450 5375
-8141 -6106 5088
-7692 -5769 4808
-7241 -5431 4526
-6773 -5080 4233
-6275 -4706 3922
-5732 -4299 3582
-5131 -3848 3206
-4457 -3343 2786
-3698 -2774 2311
-2853 -2139 1783
-1930 -1447 1206
-940 -705 587
107 80 -67
1202 901 -751
2334 1750 -1458
3493 2619 -2183
4669 3501 -2918
5851 4388 -3657
7031 5273 -4394
8203 6152 -5127
9369 7026 -5855
10528 7896 -6580
11681 8761 -7301
12830 9622 -8019
13975 10481 -8734
15117 11337 -9448
16256 12192 -10160
17393 13045 -10870
18529 13897 -11580
19667 14750 -12292
20815 15611 -13009
21979 16484 -13736
23164 17373 -14478
24379 18284 -15237
25629 19222 -16018
26921 20191 -16826
28262 21196 -17663
29657 22243 -18536
31114 23335 -19446
32626 24469 -20391
34177 25633 -21360
35750 26813 -22344
37329 27997 -23330
38896 29172 -24310
40434 30325 -25271
41927 31445 -26204
43357 32518 -27098
44708 33531 -27942
45963 34472 -28727
47130 35347 -29456
48235 36176 -30147
49308 36981 -30817
50377 37782 -31485
51471 38603 -32169
52619 39464 -32887
53849 40387 -33656
55191 41393 -34494
56672 42504 -35420
58320 43740 -36450
60142 45106 -37588
62114 46585 -38821
64214 48160 -40133
66417 49812 -41510
68699 51524 -42937
71037 53277 -44398
73406 55055 -45879
75784 56838 -47365
78145 58609 -48841
80467 60350 -50292
82736 62052 -51710
84945 63709 -53090
87090 65317 -54431
89166 66874 -55729
91168 68376 -56980
93091 69818 -58181
94929 71197 -59331
96679 72509 -60424
98334 73750 -61459
99891 74918 -62431
101354 76015 -63346
102737 77053 -64210
104055 78041 -65034
105322 78992 -65826
106553 79915 -66596
107762 80822 -67351
108964 81723 -68102
110173 82629 -68858
111403 83552 -69627
112669 84502 -70418
113974 85481 -71234
115312 86484 -72070
116675 87506 -72922
118056 88542 -73785
119448 89586 -74655
120843 90632 -75527
122236 91677 -76397
123618 92713 -77261
124982 93737 -78114
126322 94742 -78951
127633 95724 -79770
128910 96683 -80569
130152 97614 -81345
131355 98516 -82097
132515 99386 -82822
133631 100223 -83519
134698 101023 -84186
135714 101785 -84821
136676 102507 -85422
137580 103185 -85987
138429 103821 -86518
139227 104420 -87017
139982 104986 -87488
140698 105523 -87936
141381 106035 -88363
142037 106528 -88773
142672 107004 -89170
143293 107469 -89558
143904 107928 -89940
144511 108383 -90319
145115 108836 -90697
145710 109283 -91069
146290 109718 -91431
146849 110137 -91781
147382 110537 -92114
147883 110912 -92427
148345 111259 -92716
148764 111573 -92978
149134 111850 -93209
149448 112086 -93405
149703 112277 -93564
149891 112418 -93682
150010 112507 -93756
150053 112540 -93783
150016 112512 -93760
149894 112421 -93684
149683 112262 -93552
149376 112032 -93360
148970 111728 -93106
148460 111345 -92787
147852 110889 -92407
147162 110371 -91976
146406 109804 -91503
145595 109196 -90997
144748 108561 -90467
143883 107912 -89927
143017 107263 -89385
142168 106626 -88855
141355 106016 -88347
140594 105445 -87871
139885 104914 -87428
139211 104408 -87007
138554 103915 -86596
137894 103420 -86183
137213 102910 -85758
136494 102370 -85308
135717 101788 -84823
134865 101149 -84290
133919 100439 -83699
132860 99645 -83037
131689 98766 -82305
130418 97814 -81511
129064 96798 -80665
127643 95732 -79776
126168 94626 -78855
124656 93492 -77910
123122 92341 -76951
121581 91185 -75988
120048 90036 -75030
118539 88904 -74087
117056 87792 -73160
115592 86694 -72245
114137 85602 -71335
112682 84511 -70426
111219 83414 -69511
109738 82303 -68586
108230 81173 -67644
106688 80016 -66680
105101 78826 -65688
103462 77596 -64663
101769 76327 -63605
100031 75023 -62519
98256 73692 -61410
96453 72339 -60283
94629 70971 -59143
92793 69594 -57995
90953 68215 -56846
89118 66838 -55699
87296 65472 -54560
85494 64120 -53434
83714 62786 -52321
81951 61463 -51219
80198 60148 -50123
78448 58836 -49030
76697 57523 -47936
74938 56204 -46836
73165 54874 -45728
71372 53529 -44607
69552 52164 -43470
67701 50776 -42313
65817 49362 -41135
63905 47929 -39940
61970 46478 -38731
60018 45014 -37511
58054 43540 -36283
56082 42061 -35051
54108 40581 -33817
52136 39102 -32585
50173 37630 -31358
48222 36167 -30139
46289 34717 -28931
44378 33283 -27736
42492 31869 -26557
40636 30477 -25397
38814 29111 -24259
37031 27773 -23144
35289 26467 -22055
33593 25195 -20996
31948 23961 -19967
30357 22768 -18973
28817 21613 -18011
27319 20489 -17074
25851 19388 -16157
24404 18303 -15253
22969 17226 -14355
21533 16150 -13458
20089 15066 -12555
18624 13968 -11640
17129 12847 -10706
15595 11696 -9746
14022 10516 -8763
12424 9318 -7765
10814 8110 -6759
9207 6905 -5754
7615 5711 -4759
6052 4539 -3783
4533 3400 -2833
3070 2302 -1919
1677 1258 -1048
368 276 -230
-854 -641 534
-2000 -1500 1250
-3076 -2307 1922
-4092 -3069 2557
-5056 -3792 3160
-5977 -4483 3736
-6864 -5148 4290
-7727 -5795 4829
-8574 -6430 5358
-9415 -7061 5884
-10256 -7692 6410
-11101 -8325 6938
-11952 -8964 7470
-12814 -9611 8009
-13690 -10267 8556
-14582 -10936 9114
-15494 -11621 9684
-16430 -12322 10268
-17392 -13044 10870
-18383 -13787 11489
-19401 -14551 12125
-20436 -15327 12772
-21477 -16108 13423
-22516 -16887 14072
-23542 -17657 14714
-24546 -18409 15341
-25517 -19138 15948
-26447 -19835 16529
-27324 -20493 17077
-28140 -21105 17587
-28892 -21669 18057
-29589 -22191 18493
-30237 -22678 18898
-30844 -23133 19277
-31417 -23563 19636
-31964 -23973 19977
-32492 -24369 20307
-33009 -24757 20630
-33522 -25141 20951
-34037 -25528 21273
-34556 -25917 21597
-35068 -26301 21918
-35567 -26675 22229
-36043 -27032 22527
-36488 -27366 22805
-36892 -27669 23057
-37248 -27936 23280
-37547 -28160 23467
-37780 -28335 23612
-37939 -28454 23712
-38029 -28522 23768
-38069 -28551 23793
-38076 -28557 23797
-38071 -28553 23794
-38071 -28553 23794
-38097 -28573 23811
-38167 -28625 23854
-38301 -28725 23938
-38516 -28887 24072
-38832 -29124 24270
-39247 -29435 24529
-39741 -29806 24838
-40292 -30219 25182
-40877 -30658 25548
-41475 -31106 25922
-42064 -31548 26290
-42622 -31967 26639
-43127 -32345 26954
-43557 -32668 27223
-43891 -32918 27432
-44125 -33094 27578
-44273 -33205 27670
-44351 -33263 27719
-44374 -33280 27733
-44357 -33268 27723
-44317 -33238 27698
-44268 -33201 27667
-44225 -33169 27640
-44205 -33153 27628
-44221 -33166 27638
-44280 -33210 27675
-44376 -33282 27735
-44504 -33378 27815
-44657 -33493 27910
-44830 -33622 28019
-45018 -33763 28136
-45214 -33910 28258
-45412 -34059 28383
-45608 -34206 28505
-45795 -34346 28622
-45969 -34477 28731
-46127 -34595 28829
-46264 -34698 28915
-46378 -34784 28986
-46466 -34849 29041
-46524 -34893 29077
-46549 -34912 29093
-46538 -34903 29086
-46486 -34865 29054
-46392 -34794 28995
-46259 -34694 28912
-46096 -34572 28810
-45914 -34436 28696
-45724 -34293 28577
-45536 -34152 28460
-45361 -34020 28350
-45208 -33906 28255
-45089 -33816 28180
-45014 -33760 28133
-44992 -33744 28120
-45027 -33770 28142
-45112 -33834 28195
-45241 -33931 28276
-45408 -34056 28380
-45606 -34204 28504
-45829 -34372 28643
-46071 -34553 28794
-46325 -34744 28953
-46585 -34939 29116
-46845 -35134 29278
-47100 -35325 29437
-47344 -35508 29590
-47573 -35679 29733
-47782 -35836 29864
-47968 -35976 29980
-48125 -36093 30078
-48248 -36186 30155
-48334 -36251 30209
-48378 -36283 30236
-48375 -36281 30234
-48327 -36245 30204
-48242 -36181 30151
-48129 -36097 30081
-47998 -35998 29998
-47855 -35891 29909
-47711 -35783 29819
-47574 -35680 29733
-47452 -35589 29657
-47355 -35516 29596
-47290 -35467 29556
-47258 -35443 29536
-47252 -35439 29532
-47263 -35447 29539
-47282 -35462 29551
-47302 -35477 29564
-47315 -35486 29572
-47311 -35483 29569
-47283 -35462 29552
-47222 -35416 29513
-47120 -35340 29450
-46981 -35235 29363
-46817 -35113 29260
-46644 -34983 29152
-46476 -34857 29047
-46328 -34746 28955
-46215 -34661 28884
-46151 -34613 28844
-46150 -34613 28844
-46228 -34671 28893
-46399 -34799 28999
-46658 -34994 29161
-46982 -35236 29363
-47345 -35508 29590
-47722 -35792 29826
-48089 -36067 30056
-48421 -36315 30263
-48692 -36519 30432
-48877 -36658 30548
-48953 -36714 30595
-48893 -36670 30558
-48698 -36523 30436
-48390 -36292 30244
-47995 -35996 29997
-47539 -35654 29711
-47045 -35284 29403
-46540 -34905 29087
-46049 -34536 28780
-45596 -34197 28497
-45206 -33905 28254
-44905 -33679 28066
-44700 -33525 27937
-44579 -33434 27862
-44530 -33397 27831
-44540 -33405 27837
-44597 -33448 27873
-44688 -33516 27930
-44802 -33601 28001
-44925 -33693 28078
-45045 -33783 28153
-45150 -33862 28218
-45234 -33925 28271
-45298 -33973 28311
-45344 -34008 28340
-45372 -34029 28357
-45384 -34038 28365
-45381 -34036 28363
-45365 -34024 28353
-45337 -34003 28336
-45299 -33974 28311
-45251 -33938 28281
-45194 -33895 28246
-45127 -33845 28204
-45050 -33787 28156
-44962 -33721 28101
-44861 -33646 28038
-44748 -33561 27968
-44622 -33466 27889
-44481 -33361 27801
-44325 -33244 27703
-44154 -33115 27596
-43969 -32977 27481
-43776 -32832 27360
-43581 -32685 27238
-43388 -32541 27117
-43204 -32403 27002
-43034 -32276 26896
-42884 -32163 26802
-42759 -32069 26724
-42665 -31998 26665
-42606 -31955 26629
-42585 -31938 26615
-42595 -31946 26622
-42631 -31973 26644
-42689 -32017 26681
-42763 -32072 26727
-42848 -32136 26780
-42937 -32203 26835
-43027 -32270 26891
-43111 -32333 26944
-43185 -32389 26991
-43244 -32433 27027
-43282 -32461 27051
-43293 -32469 27058
-43271 -32453 27044
-43210 -32408 27006
-43106 -32329 26941
-42951 -32213 26844
-42741 -32056 26713
-42470 -31852 26543
-42131 -31598 26332
-41729 -31296 26080
-41273 -30955 25796
-40778 -30584 25486
-40255 -30191 25159
-39717 -29788 24823
-39176 -29382 24485
-38644 -28983 24152
-38133 -28600 23833
-37657 -28242 23535
-37226 -27919 23266
-36849 -27637 23031
-36530 -27397 22831
-36269 -27202 22668
-36071 -27053 22544
-35938 -26954 22461
-35873 -26904 22420
-35877 -26908 22423
-35955 -26966 22472
-36108 -27081 22567
-36338 -27254 22711
-36640 -27480 22900
-36996 -27747 23122
-37387 -28040 23367
-37796 -28347 23623
-38205 -28654 23878
-38597 -28947 24123
-38952 -29214 24345
-39253 -29440 24533
-39483 -29612 24677
-39623 -29717 24764
-39671 -29753 24794
-39639 -29729 24774
-39539 -29654 24712
-39386 -29539 24616
-39193 -29394 24495
-38973 -29229 24358
-38739 -29054 24212
-38506 -28879 24066
-38286 -28714 23928
-38092 -28569 23807
-37928 -28446 23705
-37788 -28341 23617
-37665 -28249 23541
-37552 -28164 23470
-37442 -28081 23401
-37328 -27996 23330
-37202 -27902 23251
-37058 -27794 23161
-36889 -27667 23055
-36688 -27516 22930
-36453 -27339 22783
-36189 -27142 22618
-35903 -26927 22439
-35599 -26699 22249
-35283 -26462 22051
-34960 -26220 21850
-34637 -25977 21648
-34317 -25738 21448
-34008 -25506 21255
-33714 -25285 21071
-33439 -25079 20899
-33184 -24888 20740
-32953 -24715 20596
-32747 -24560 20467
-32568 -24426 20355
-32417 -24313 20261
-32297 -24223 20185
-32209 -24157 20131
-32156 -24117 20097
-32139 -24104 20087
-32156 -24117 20097
-32199 -24149 20124
-32255 -24191 20159
-32312 -24234 20195
-32358 -24268 20223
-32381 -24285 20238
-32368 -24276 20230
-32308 -24231 20193
-32189 -24142 20118
-31999 -23999 19999
-31737 -23802 19835
-31416 -23562 19635
-31050 -23287 19406
-30651 -22988 19157
-30235 -22676 18897
-29814 -22360 18634
-29402 -22051 18376
-29013 -21759 18133
-28659 -21494 17912
-28356 -21267 17722
-28099 -21074 17562
-27870 -20902 17419
-27647 -20735 17279
-27407 -20555 17129
-27132 -20349 16957
-26798 -20098 16748
-26385 -19789 16490
-25872 -19404 16170
-25237 -18928 15773
-24461 -18345 15288
-23543 -17657 14714
-22511 -16883 14069
-21391 -16043 13369
-20211 -15158 12632
-18998 -14248 11874
-17780 -13335 11113
-16585 -12439 10365
-15440 -11580 9650
-14372 -10779 8983
-13409 -10057 8381
-12554 -9415 7846
-11779 -8834 7361
-11056 -8292 6910
-10357 -7768 6473
-9655 -7241 6034
-8920 -6690 5575
-8125 -6094 5078
-7243 -5432 4527
-6244 -4683 3902
-5102 -3826 3189
-3811 -2858 2382
-2392 -1794 1495
-865 -649 540
746 559 -466
2421 1815 -1513
4137 3103 -2585
5873 4404 -3670
7606 5704 -4754
9315 6986 -5822
10978 8233 -6861
12587 9440 -7867
14154 10615 -8846
15688 11766 -9805
17201 12900 -10750
18703 14027 -11689
20206 15154 -12629
21720 16290 -13575
23256 17442 -14535
24826 18619 -15516
26444 19833 -16527
28117 21088 -17573
29839 22379 -18649
31602 23702 -19751
33400 25050 -20875
35226 26419 -22016
37072 27804 -23170
38933 29200 -24333
40802 30602 -25501
42673 32004 -26670
44538 33403 -27836
46393 34795 -28995
48233 36174 -30145
50052 37539 -31283
51848 38886 -32405
53614 40211 -33509
55348 41511 -34592
57043 42782 -35652
58698 44023 -36686
60306 45230 -37691
61865 46399 -38666
63373 47530 -39608
64831 48623 -40519
66241 49680 -41400
67603 50702 -42252
68920 51690 -43075
70193 52645 -43871
71425 53568 -44640
72616 54462 -45385
73769 55327 -46106
74886 56165 -46804
75964 56973 -47477
76992 57744 -48120
77959 58469 -48724
78855 59141 -49284
79670 59752 -49793
80393 60295 -50246
81015 60761 -50634
81525 61143 -50953
81913 61434 -51195
82169 61627 -51356
82296 61722 -51435
82309 61731 -51443
82222 61667 -51389
82054 61540 -51283
81819 61364 -51137
81534 61151 -50959
81217 60912 -50760
80882 60662 -50551
80548 60411 -50342
80229 60172 -50143
79927 59945 -49954
79621 59715 -49763
79289 59467 -49555
78911 59183 -49319
78466 58849 -49041
77932 58449 -48708
77290 57967 -48306
76517 57388 -47823
75594 56695 -47246
74501 55875 -46563
73237 54928 -45773
71829 53872 -44893
70304 52728 -43940
68690 51517 -42931
67013 50260 -41883
65303 48977 -40814
63585 47688 -39740
61888 46416 -38680
60239 45179 -37649
58664 43998 -36665
57172 42879 -35732
55748 41811 -34842
54372 40779 -33982
53027 39770 -33142
51695 38771 -32309
50357 37768 -31473
48996 36747 -30622
47593 35695 -29746
46130 34597 -28831
44589 33441 -27868
42964 32223 -26853
41270 30953 -25794
39520 29640 -24700
37727 28295 -23579
35905 26928 -22440
34067 25550 -21291
32226 24170 -20141
30397 22797 -18998
28591 21443 -17869
26823 20117 -16764
25096 18822 -15685
23405 17554 -14628
21742 16306 -13589
20101 15075 -12563
18474 13855 -11546
16855 12641 -10534
15236 11427 -9522
13610 10208 -8506
11970 8978 -7481
10309 7732 -6443
8627 6470 -5392
6935 5201 -4334
5243 3932 -3277
3562 2671 -2226
1902 1426 -1189
274 205 -171
-1310 -983 819
-2843 -2132 1777
-4312 -3234 2695
-5709 -4281 3568
-7029 -5271 4393
-8278 -6208 5173
-9462 -7096 5913
-10586 -7940 6616
-11658 -8743 7286
-12683 -9512 7926
-13666 -10250 8541
-14616 -10962 9135
-15537 -11653 9710
-16436 -12327 10272
-17315 -12986 10821
-18167 -13625 11354
-18987 -14240 11867
-19769 -14827 12355
-20507 -15380 12817
-21197 -15898 13248
-21832 -16374 13645
-22406 -16804 14004
-22915 -17186 14322
-23354 -17515 14596
-23726 -17795 14829
-24051 -18038 15032
-24344 -18258 15215
-24619 -18464 15387
-24892 -18669 15557
-25177 -18883 15736
-25492 -19119 15932
-25851 -19388 16157
-26271 -19703 16419
-26768 -20076 16730
-27340 -20505 17088
-27963 -20972 17477
-28610 -21458 17881
-29256 -21942 18285
-29876 -22407 18672
-30444 -22833 19027
-30935 -23201 19334
-31325 -23493 19578
-31589 -23692 19743
-31705 -23779 19816
-31680 -23760 19800
-31559 -23669 19724
-31391 -23543 19619
-31226 -23420 19516
-31113 -23335 19446
-31102 -23326 19438
-31242 -23431 19526
-31583 -23687 19739
-32177 -24133 20110
-33072 -24804 20670
-34277 -25708 21423
-35747 -26810 22342
-37434 -28076 23396
-39291 -29468 24556
-41269 -30951 25793
-43321 -32490 27075
-45400 -34050 28375
-47461 -35596 29663
-49456 -37092 30910
-51340 -38505 32087
-53109 -39832 33193
-54798 -41098 34248
-56441 -42331 35275
-58072 -43554 36295
-59724 -44793 37327
-61426 -46069 38391
-63207 -47405 39504
-65093 -48819 40683
-67109 -50332 41943
-69279 -51959 43299
-71600 -53700 44750
-74038 -55528 46273
-76555 -57416 47846
-79112 -59334 49445
-81668 -61251 51042
-84179 -63134 52612
-86603 -64952 54127
-88892 -66669 55557
-90998 -68249 56874
-92873 -69654 58045
-94471 -70853 59044
-95759 -71819 59849
-96699 -72524 60437
-97253 -72940 60783
-97382 -73036 60863
-97043 -72782 60651
-96192 -72144 60120
-94786 -71090 59241
-92778 -69583 57986
-90117 -67588 56323
-86755 -65066 54222
-82735 -62051 51709
-78051 -58538 48781
-72636 -54477 45397
-66435 -49826 41521
-59400 -44550 37125
-51494 -38621 32184
-42688 -32016 26680
-32961 -24720 20600
-22301 -16726 13938
-10706 -8029 6691
1821 1366 -1138
15269 11452 -9543
29616 22212 -18510
44831 33623 -28019
60875 45656 -38046
77699 58274 -48562
95248 71436 -59530
113454 85090 -70908
132241 99181 -82651
151521 113641 -94701
171188 128391 -106992
191126 143344 -119454
211211 158408 -132007
231310 173482 -144568
251280 188460 -157050
270972 203229 -169357
290223 217667 -181389
308866 231650 -193041
326723 245042 -204202
343611 257708 -214756
359346 269509 -224591
373735 280301 -233584
386629 289971 -241643
397930 298448 -248706
407559 305669 -254724
415446 311585 -259654
421537 316152 -263460
425787 319340 -266117
428169 321127 -267605
428666 321499 -267916
427277 320458 -267048
424013 318010 -265008
418900 314175 -261812
411974 308980 -257483
403286 302464 -252053
392900 294675 -245562
380892 285669 -238057
367352 275514 -229595
352383 264287 -220239
336094 252070 -210059
318601 238951 -199125
300031 225023 -187519
280525 210394 -175328
260237 195178 -162648
239334 179501 -149584
217995 163496 -136247
196414 147310 -122758
174795 131096 -109247
153358 115019 -95849
132313 99235 -82696
111657 83743 -69786
91438 68578 -57149
71730 53797 -44831
52602 39451 -32876
34116 25587 -21322
16330 12248 -10206
-704 -528 440
-16944 -12708 10590
-32349 -24262 20218
-46881 -35160 29300
-60497 -45372 37810
-73161 -54871 45726
-84845 -63633 53028
-95522 -71642 59701
-105176 -78882 65735
-113794 -85345 71121
-121369 -91026 75855
-127901 -95925 79938
-133396 -100047 83372
-137876 -103407 86172
-141383 -106037 88364
-143967 -107975 89979
-145683 -109262 91051
-146590 -109943 91619
-146758 -110068 91723
-146258 -109693 91411
-145168 -108876 90730
-143539 -107654 89712
-141393 -106045 88371
-138803 -104102 86752
-135824 -101868 84890
-132510 -99382 82818
-128911 -96683 80569
-125074 -93806 78171
-121044 -90783 75652
-116862 -87646 73038
-112565 -84424 70353
-108189 -81142 67618
-103767 -77825 64854
-99331 -74498 62082
-94920 -71190 59325
-90567 -67925 56604
-86304 -64728 53940
-82159 -61619 51349
-78157 -58618 48848
-74321 -55741 46450
-70670 -53003 44169
-67221 -50416 42013
-63987 -47990 39992
-60976 -45732 38110
-58188 -43641 36368
-55623 -41717 34764
-53275 -39956 33297
-51136 -38352 31960
-49195 -36896 30746
-47438 -35578 29649
-45848 -34386 28655
-44406 -33305 27754
-43088 -32316 26930
-41870 -31402 26168
-40726 -30544 25453
-39656 -29742 24785
-38663 -28997 24164
-37739 -28304 23586
-36877 -27658 23048
-36072 -27054 22545
-35316 -26487 22072
-34605 -25953 21628
-33932 -25449 21207
-33295 -24971 20809
-32695 -24521 20434
-32133 -24100 20083
-31612 -23709 19757
-31133 -23349 19458
-30699 -23024 19186
-30312 -22734 18945
-29976 -22482 18735
-29693 -22269 18558
-29466 -22100 18416
-29293 -21970 18308
-29163 -21872 18227
-29064 -21798 18165
-28984 -21738 18115
-28914 -21685 18071
-28841 -21631 18025
-28756 -21567 17972
-28647 -21485 17904
-28506 -21380 17816
-28322 -21242 17701
-28092 -21069 17557
-27819 -20864 17386
-27507 -20630 17192
-27163 -20372 16977
-26790 -20093 16744
-26395 -19796 16497
-25983 -19487 16239
-25560 -19170 15975
-25132 -18849 15707
-24705 -18528 15440
-24281 -18211 15176
-23857 -17893 14911
-23428 -17571 14642
-22982 -17237 14364
-22512 -16884 14070
-22010 -16508 13756
-21471 -16103 13419
-20888 -15666 13055
-20255 -15191 12659
-19565 -14674 12228
-18819 -14114 11762
-18028 -13521 11267
-17201 -12901 10750
-16350 -12262 10218
-15485 -11614 9678
-14618 -10963 9136
-13759 -10319 8599
-12918 -9689 8074
-12108 -9081 7567
-11338 -8503 7086
-10611 -7958 6632
-9924 -7443 6202
-9267 -6950 5792
-8636 -6477 5397
-8023 -6017 5014
-7422 -5566 4638
-6825 -5119 4266
-6228 -4671 3892
-5622 -4216 3514
-5002 -3751 3126
-4358 -3268 2724
-3679 -2759 2299
-2954 -2215 1846
-2170 -1627 1356
-1315 -986 822
-379 -284 237
651 488 -406
1787 1340 -1116
3040 2280 -1900
4422 3317 -2764
5928 4446 -3705
7525 5644 -4703
9183 6887 -5739
10868 8151 -6793
12550 9412 -7843
14195 10646 -8871
15771 11828 -9856
17246 12934 -10778
18587 13940 -11617
19764 14823 -12352
20770 15577 -12981
21635 16226 -13522
22395 16796 -13997
23082 17311 -14426
23729 17797 -14831
24372 18279 -15232
25042 18781 -15651
25775 19331 -16109
26604 19953 -16627
27562 20671 -17226
28663 21497 -17914
29894 22421 -18684
31240 23430 -19525
32686 24514 -20429
34216 25662 -21385
35816 26862 -22385
37469 28102 -23418
39162 29371 -24476
40878 30658 -25549
42603 31952 -26627
44328 33246 -27705
46054 34540 -28783
47781 35836 -29863
49511 37133 -30944
51246 38434 -32028
52985 39739 -33116
54732 41049 -34207
56485 42364 -35303
58248 43686 -36405
60021 45015 -37513
61802 46352 -38626
63590 47693 -39744
65381 49036 -40863
67172 50379 -41982
68960 51720 -43100
70740 53055 -44212
72511 54383 -45319
74268 55701 -46417
76009 57007 -47505
77730 58297 -48581
79433 59574 -49645
81127 60845 -50704
82821 62116 -51763
84525 63393 -52828
86248 64686 -53905
88000 66000 -55000
89789 67342 -56118
91626 68719 -57266
93520 70140 -58450
95479 71609 -59674
97501 73126 -60938
99565 74674 -62228
101648 76236 -63530
103727 77795 -64829
105780 79335 -66113
107785 80839 -67366
109720 82290 -68575
111561 83670 -69725
113286 84964 -70804
114873 86155 -71796
116320 87240 -72700
117651 88238 -73532
118894 89170 -74309
120077 90057 -75048
121226 90920 -75766
122370 91778 -76481
123536 92652 -77210
124750 93563 -77969
126042 94531 -78776
127436 95577 -79647
128939 96704 -80587
130522 97891 -81576
132155 99116 -82597
133808 100356 -83630
135451 101588 -84657
137053 102790 -85658
138584 103938 -86615
140014 105011 -87509
141313 105984 -88320
142449 106837 -89031
143419 107564 -89637
144251 108188 -90157
144977 108733 -90610
145629 109222 -91018
146240 109680 -91400
146841 110131 -91776
147468 110601 -92167
148152 111114 -92595
148927 111695 -93079
149824 112368 -93640
150850 113138 -94281
151978 113983 -94986
153174 114880 -95733
154407 115805 -96504
155645 116733 -97278
156856 117642 -98035
158008 118506 -98755
159070 119303 -99419
160010 120007 -100006
160796 120597 -100498
161415 121061 -100884
161880 121410 -101175
162203 121652 -101377
162401 121800 -101500
162487 121865 -101554
162476 121857 -101547
162383 121787 -101489
162222 121666 -101388
162007 121505 -101254
161754 121316 -101096
161472 121104 -100920
161161 120871 -100725
160823 120617 -100514
160457 120343 -100286
160066 120049 -100041
159648 119736 -99780
159207 119405 -99504
158741 119055 -99213
158252 118689 -98907
157740 118305 -98587
157205 117904 -98253
156643 117482 -97902
156049 117036 -97530
155419 116564 -97137
154749 116061 -96718
154035 115526 -96271
153272 114954 -95795
152457 114343 -95286
151586 113690 -94741
150655 112991 -94159
149662 112246 -93538
148608 111456 -92880
147497 110623 -92185
146330 109747 -91456
145110 108832 -90693
143838 107879 -89899
142518 106889 -89074
141152 105864 -88220
139741 104806 -87338
138289 103716 -86430
136799 102599 -85499
135282 101461 -84551
133744 100308 -83590
132196 99147 -82622
130645 97984 -81653
129101 96825 -80688
127572 95679 -79732
126067 94550 -78792
124595 93446 -77872
123165 92374 -76978
121776 91332 -76110
120411 90308 -75257
119053 89290 -74408
117686 88264 -73553
116291 87218 -72682
114852 86139 -71782
113352 85014 -70845
111773 83829 -69858
110098 82573 -68811
108311 81233 -67694
106410 79807 -66506
104415 78311 -65259
102350 76762 -63969
100236 75177 -62647
98093 73569 -61308
95942 71957 -59964
93808 70356 -58630
91711 68783 -57319
89674 67256 -56046
87720 65790 -54825
85856 64392 -53660
84074 63055 -52546
82359 61769 -51474
80700 60525 -50437
79085 59314 -49428
77501 58126 -48438
75936 56952 -47460
74378 55783 -46486
72814 54610 -45508
71231 53423 -44519
69623 52217 -43514
67990 50992 -42493
66331 49748 -41457
64648 48486 -40405
62942 47207 -39339
61213 45910 -38258
59462 44596 -37164
57689 43267 -36056
55895 41921 -34934
54081 40560 -33800
52250 39187 -32656
50410 37807 -31506
48571 36428 -30357
46741 35056 -29213
44929 33697 -28080
43144 32358 -26965
41394 31045 -25871
39688 29766 -24805
38035 28526 -23772
36444 27333 -22777
34916 26187 -21822
33445 25083 -20903
32022 24016 -20013
30639 22979 -19149
29289 21967 -18305
27963 20972 -17477
26653 19990 -16658
25351 19013 -15844
24049 18037 -15031
22739 17054 -14212
21419 16064 -13387
20098 15074 -12561
18786 14089 -11741
17491 13118 -10932
16224 12168 -10140
14994 11245 -9371
13810 10357 -8631
12681 9511 -7926
11618 8713 -7261
10628 7971 -6643
9714 7285 -6071
8861 6646 -5538
8056 6042 -5035
7284 5463 -4552
6532 4899 -4082
5785 4339 -3616
5030 3772 -3143
4251 3188 -2657
3435 2576 -2147
2568 1926 -1605
1645 1234 -1028
676 507 -422
-327 -245 204
-1354 -1016 846
-2395 -1796 1497
-3437 -2577 2148
-4469 -3352 2793
-5481 -4110 3425
-6461 -4845 4038
-7398 -5549 4624
-8288 -6216 5180
-9133 -6849 5708
-9936 -7452 6210
-10702 -8026 6689
-11433 -8574 7145
-12131 -9098 7582
-12802 -9601 8001
-13447 -10085 8404
-14072 -10554 8795
-14679 -11009 9174
-15269 -11451 9543
-15836 -11877 9897
-16374 -12281 10234
-16878 -12659 10549
-17342 -13006 10838
-17758 -13319 11099
-18123 -13592 11326
-18429 -13821 11518
-18670 -14002 11669
-18841 -14131 11776
-18945 -14209 11840
-18997 -14248 11873
-19016 -14262 11885
-19017 -14263 11886
-19019 -14264 11887
-19039 -14279 11899
-19094 -14320 11934
-19201 -14401 12001
-19378 -14534 12111
-19642 -14732 12276
-19997 -14997 12498
-20425 -15319 12766
-20910 -15682 13068
-21431 -16073 13394
-21972 -16479 13732
-22514 -16885 14071
-23038 -17278 14398
-23525 -17644 14703
-23958 -17969 14974
-24319 -18239 15199
-24599 -18449 15374
-24808 -18606 15505
-24957 -18718 15598
-25057 -18793 15660
-25118 -18838 15699
-25151 -18863 15719
-25168 -18876 15730
-25178 -18883 15736
-25193 -18894 15745
-25223 -18917 15764
-25273 -18954 15795
-25338 -19003 15836
-25413 -19060 15883
-25492 -19119 15932
-25570 -19177 15981
-25641 -19231 16025
-25700 -19275 16062
-25740 -19305 16088
-25758 -19318 16098
-25746 -19309 16091
-25704 -19278 16065
-25639 -19229 16024
-25557 -19167 15973
-25465 -19098 15915
-25370 -19027 15856
-25279 -18959 15799
-25199 -18899 15749
-25136 -18852 15710
-25099 -18824 15686
-25092 -18819 15682
-25118 -18839 15699
-25170 -18877 15731
-25238 -18929 15774
-25315 -18986 15822
-25393 -19045 15870
-25462 -19097 15914
-25516 -19137 15947
-25545 -19158 15965
-25541 -19155 15963
-25496 -19122 15935
-25408 -19056 15880
-25286 -18965 15804
-25141 -18855 15713
-24980 -18735 15613
-24815 -18611 15509
-24655 -18491 15409
-24509 -18382 15318
-24388 -18291 15242
-24300 -18225 15187
-24256 -18192 15160
-24258 -18193 15161
-24294 -18221 15184
-24355 -18266 15222
-24428 -18321 15268
-24503 -18377 15314
-24567 -18425 15354
-24610 -18458 15381
-24621 -18465 15388
-24587 -18440 15367
-24499 -18374 15311
-24353 -18265 15220
-24162 -18121 15101
-23940 -17955 14962
-23700 -17775 14812
-23456 -17592 14660
-23221 -17416 14513
-23010 -17257 14381
-22835 -17126 14272
-22710 -17033 14194
-22649 -16987 14156
-22655 -16991 14159
-22715 -17036 14197
-22813 -17110 14258
-22935 -17201 14334
-23066 -17299 14416
-23191 -17393 14494
-23295 -17471 14559
-23364 -17523 14602
-23382 -17536 14614
-23335 -17501 14584
-23217 -17413 14511
-23041 -17280 14400
-22817 -17112 14260
-22559 -16919 14099
-22279 -16709 13924
-21989 -16492 13743
-21702 -16276 13564
-21431 -16073 13394
-21187 -15890 13242
-20983 -15737 13114
-20826 -15619 13016
-20711 -15533 12944
-20633 -15475 12896
-20589 -15441 12868
-20572 -15429 12858
-20579 -15434 12862
-20605 -15454 12878
-20644 -15483 12902
-20692 -15519 12933
-20745 -15558 12965
-20797 -15598 12998
-20846 -15635 13029
-20889 -15667 13055
-20922 -15691 13076
-20942 -15706 13089
-20946 -15709 13091
-20931 -15698 13081
-20893 -15669 13058
-20829 -15622 13018
-20737 -15552 12960
-20615 -15461 12884
-20470 -15352 12794
-20307 -15230 12692
-20132 -15099 12583
-19951 -14963 12469
-19770 -14827 12356
-19594 -14695 12246
-19429 -14572 12143
-19281 -14460 12050
-19155 -14366 11972
-19054 -14291 11909
-18973 -14230 11858
-18907 -14180 11817
-18850 -14137 11781
-18797 -14098 11748
-18744 -14058 11715
-18684 -14013 11677
-18613 -13960 11633
-18526 -13894 11578
-18417 -13812 11510
-18286 -13714 11428
-18142 -13606 11339
-17995 -13496 11247
-17854 -13390 11158
-17728 -13296 11080
-17626 -13220 11016
-17559 -13169 10974
-17536 -13152 10960
-17566 -13174 10979
-17658 -13244 11036
-17813 -13359 11133
-18012 -13509 11257
-18239 -13679 11399
-18474 -13855 11546
-18699 -14024 11687
-18896 -14172 11810
-19048 -14286 11905
-19134 -14350 11959
-19138 -14353 11961
-19040 -14280 11900
-18838 -14128 11773
-18549 -13911 11593
-18194 -13645 11371
-17795 -13346 11121
-17372 -13029 10857
-16946 -12709 10591
-16539 -12404 10337
-16171 -12128 10107
-15864 -11898 9915
-15638 -11728 9773
-15501 -11626 9688
-15444 -11583 9652
-15452 -11589 9658
-15513 -11635 9695
-15613 -11709 9758
-15739 -11804 9836
-15877 -11908 9923
-16015 -12011 10009
-16140 -12105 10087
-16238 -12178 10148
-16301 -12226 10188
-16331 -12248 10207
-16329 -12247 10205
-16297 -12223 10186
-16238 -12179 10149
-16154 -12115 10096
-16045 -12034 10028
-15915 -11936 9947
-15765 -11824 9853
-15597 -11698 9748
-15415 -11561 9634
-15220 -11415 9513
-15019 -11264 9386
-14813 -11109 9258
-14606 -10955 9129
-14404 -10803 9002
-14210 -10657 8881
-14028 -10521 8767
-13862 -10397 8664
-13717 -10288 8573
-13594 -10195 8496
-13489 -10117 8431
-13398 -10049 8374
-13317 -9988 8323
-13242 -9931 8276
-13168 -9876 8230
-13092 -9819 8182
-13009 -9757 8131
-12915 -9686 8072
-12807 -9605 8004
-12682 -9511 7926
-12545 -9408 7840
-12399 -9299 7749
-12250 -9188 7656
-12102 -9076 7564
-11959 -8969 7474
-11825 -8869 7390
-11705 -8778 7315
-11602 -8702 7251
-11522 -8641 7201
-11464 -8598 7165
-11424 -8568 7140
-11396 -8547 7122
-11373 -8530 7108
-11350 -8512 7093
-11320 -8490 7075
-11278 -8458 7049
-11218 -8413 7011
-11133 -8350 6958
-11018 -8263 6886
-10870 -8152 6794
-10692 -8019 6683
-10488 -7866 6555
-10262 -7696 6414
-10017 -7513 6260
-9757 -7318 6098
-9486 -7114 5928
-9206 -6905 5754
-8923 -6692 5577
-8640 -6480 5400
-8360 -6270 5225
-8087 -6065 5054
-7826 -5869 4891
-7581 -5685 4738
-7355 -5516 4597
-7153 -5365 4470
-6979 -5234 4361
-6836 -5127 4272
-6730 -5047 4206
-6663 -4997 4164
-6635 -4976 4147
-6637 -4978 4148
-6661 -4995 4163
-6695 -5021 4184
-6732 -5049 4207
-6760 -5070 4225
-6771 -5078 4232
-6755 -5066 4221
-6702 -5026 4188
-6602 -4952 4126
-6451 -4838 4032
-6247 -4685 3904
-5991 -4493 3744
-5684 -4263 3552
-5326 -3994 3328
-4917 -3688 3073
-4460 -3345 2787
-3953 -2964 2470
-3397 -2548 2123
-2793 -2095 1746
-2145 -1609 1340
-1464 -1098 915
-757 -568 473
-32 -24 20
702 527 -439
1441 1081 -901
2176 1632 -1360
2900 2175 -1812
3604 2703 -2252
4282 3211 -2676
4931 3698 -3082
5559 4169 -3474
6173 4630 -3858
6782 5087 -4239
7394 5545 -4621
8016 6012 -5010
8657 6492 -5410
9324 6993 -5827
10024 7518 -6265
10767 8075 -6729
11554 8666 -7221
12384 9288 -7740
13252 9939 -8282
14154 10616 -8846
15086 11315 -9429
16044 12033 -10028
17024 12768 -10640
18022 13516 -11263
19032 14274 -11895
20052 15039 -12532
21081 15811 -13175
22131 16598 -13832
23214 17411 -14509
24342 18256 -15214
25526 19144 -15954
26778 20083 -16736
28110 21082 -17568
29533 22149 -18458
31058 23293 -19411
32698 24523 -20436
34451 25838 -21532
36301 27225 -22688
38224 28668 -23890
40201 30150 -25125
42209 31657 -26381
44228 33171 -27643
46237 34677 -28898
48213 36160 -30133
50136 37602 -31335
51984 38988 -32490
53747 40310 -33592
55436 41577 -34648
57066 42799 -35666
58648 43986 -36655
60197 45148 -37623
61725 46294 -38578
63246 47434 -39528
64772 48579 -40482
66316 49737 -41447
67891 50918 -42432
69506 52130 -43441
71162 53371 -44476
72858 54644 -45536
74596 55947 -46622
76374 57281 -47734
78199 58649 -48874
80069 60052 -50043
81983 61487 -51239
83941 62955 -52463
85939 64454 -53712
87970 65977 -54981
90006 67505 -56254
92023 69017 -57514
93993 70495 -58746
95891 71918 -59932
97689 73267 -61055
99362 74521 -62101
100883 75662 -63052
102228 76671 -63892
103369 77527 -64606
104302 78226 -65189
105056 78792 -65660
105663 79247 -66039
106158 79619 -66349
106575 79931 -66609
106946 80209 -66841
107306 80479 -67066
107688 80766 -67305
108127 81095 -67579
108656 81492 -67910
109289 81967 -68305
109999 82499 -68749
110755 83066 -69222
111528 83646 -69705
112288 84216 -70180
113004 84753 -70627
113647 85235 -71029
114188 85641 -71367
114596 85947 -71623
114843 86132 -71777
114914 86186 -71821
114821 86115 -71763
114578 85933 -71611
114200 85650 -71375
113702 85277 -71064
113100 84825 -70687
112408 84306 -70255
111642 83732 -69776
110818 83113 -69261
109950 82462 -68719
109049 81787 -68156
108116 81087 -67572
107149 80362 -66968
106149 79611 -66343
105114 78835 -65696
104044 78033 -65027
102940 77205 -64337
101801 76351 -63626
100628 75471 -62892
99419 74564 -62137
98177 73633 -61361
96903 72677 -60564
95598 71699 -59749
94265 70699 -58915
92905 69679 -58065
91521 68640 -57200
90114 67585 -56321
88687 66515 -55429
87241 65431 -54525
85774 64330 -53609
84287 63215 -52679
82777 62082 -51735
81240 60930 -50775
79674 59756 -49796
78076 58557 -48797
76442 57331 -47776
74768 56076 -46730
73052 54789 -45657
71289 53466 -44555
69476 52107 -43422
67615 50711 -42259
65716 49287 -41072
63791 47843 -39869
61853 46390 -38658
59913 44935 -37445
57983 43487 -36239
56074 42055 -35046
54198 40648 -33873
52366 39274 -32729
50590 37943 -31619
48877 36657 -30548
47220 35415 -29513
45617 34213 -28511
44061 33046 -27538
42548 31911 -26592
41071 30803 -25669
39626 29720 -24766
38207 28655 -23879
36809 27606 -23005
35425 26569 -22140
34055 25541 -21284
32703 24527 -20439
31376 23532 -19610
30079 22559 -18799
28820 21615 -18012
27604 20703 -17252
26436 19827 -16522
25323 18992 -15827
24271 18203 -15169
23284 17463 -14552
22364 16773 -13978
21505 16129 -13441
20698 15523 -12936
19935 14951 -12459
19207 14405 -12004
18507 13880 -11567
17826 13369 -11141
17156 12867 -10722
16488 12366 -10305
15814 11860 -9884
15130 11348 -9456
14443 10832 -9027
13760 10320 -8600
13089 9816 -8180
12435 9326 -7772
11808 8856 -7380
11212 8409 -7008
10657 7992 -6660
10147 7610 -6342
9693 7269 -6058
9296 6972 -5810
8948 6711 -5592
8640 6480 -5400
8361 6271 -5226
8103 6077 -5064
7855 5891 -4909
7606 5704 -4753
7345 5509 -4590
7062 5297 -4414
6746 5060 -4216
6391 4793 -3994
6003 4502 -3752
5589 4192 -3493
5154 3866 -3221
4706 3529 -2941
4249 3187 -2655
3790 2842 -2369
3334 2501 -2084
2887 2165 -1804
2453 1840 -1533
2030 1522 -1269
1602 1201 -1001
1150 862 -718
656 492 -410
102 76 -63
-531 -398 332
-1263 -947 789
-2112 -1584 1320
-3099 -2324 1936
-4242 -3181 2651
-5554 -4165 3471
-7034 -5275 4396
-8677 -6508 5423
-10482 -7861 6551
-12445 -9334 7778
-14564 -10923 9102
-16835 -12626 10522
-19244 -14433 12027
-21767 -16325 13604
-24379 -18284 15237
-27059 -20294 16912
-29795 -22346 18621
-32571 -24428 20357
-35374 -26530 22108
-38186 -28639 23866
-40989 -30742 25618
-43765 -32824 27353
-46491 -34868 29057
-49146 -36859 30716
-51704 -38778 32315
-54138 -40603 33836
-56410 -42307 35256
-58480 -43860 36550
-60308 -45231 37692
-61852 -46389 38657
-63067 -47300 39417
-63908 -47931 39943
-64330 -48247 40206
-64282 -48211 40176
-63715 -47786 39822
-62584 -46938 39115
-60852 -45639 38032
-58481 -43860 36550
-55432 -41574 34645
-51665 -38749 32290
-47206 -35405 29504
-42081 -31561 26300
-36236 -27177 22647
-29627 -22220 18517
-22220 -16665 13887
-13983 -10487 8739
-4885 -3664 3053
5095 3821 -3184
15972 11979 -9983
27752 20814 -17345
40430 30322 -25269
53992 40494 -33745
68416 51312 -42760
83671 62753 -52294
99717 74788 -62323
116503 87377 -72814
133972 100479 -83732
152055 114041 -95034
170676 128007 -106673
189750 142312 -118594
209181 156886 -130738
228865 171649 -143041
248691 186518 -155432
268535 201401 -167834
288267 216200 -180166
307743 230807 -192339
326807 245105 -204254
345291 258968 -215807
363019 272264 -226887
379820 284865 -237387
395528 296646 -247205
409989 307492 -256243
423062 317297 -264414
434622 325966 -271639
444558 333419 -277849
452779 339584 -282987
459216 344412 -287010
463815 347861 -289884
466538 349903 -291586
467361 350521 -292100
466276 349707 -291422
463290 347467 -289556
458423 343817 -286514
451712 338784 -282320
443208 332406 -277005
432972 324729 -270607
421064 315798 -263165
407562 305672 -254726
392556 294417 -245347
376152 282114 -235095
358469 268852 -224043
339645 254734 -212278
319829 239872 -199893
299187 224390 -186992
277899 208424 -173687
256170 192127 -160106
234234 175675 -146396
212345 159258 -132715
190751 143063 -119219
169483 127112 -105927
148609 111457 -92880
128231 96173 -80144
108445 81334 -67778
89341 67006 -55838
71002 53252 -44376
53496 40122 -33435
36869 27652 -23043
21158 15869 -13224
6394 4795 -3996
-7398 -5549 4624
-20204 -15153 12627
-32009 -24007 20006
-42812 -32109 26757
-52612 -39459 32883
-61421 -46065 38388
-69246 -51934 43279
-76095 -57071 47559
-81980 -61485 51237
-86918 -65188 54323
-90934 -68200 56833
-94059 -70544 58787
-96332 -72249 60208
-97797 -73348 61123
-98505 -73879 61565
-98513 -73885 61571
-97877 -73408 61173
-96590 -72442 60368
-94708 -71031 59192
-92303 -69227 57689
-89445 -67084 55903
-86199 -64649 53874
-82628 -61971 51642
-78789 -59092 49243
-74740 -56055 46713
-70533 -52900 44083
-66215 -49661 41384
-61824 -46368 38640
-57396 -43047 35872
-52961 -39721 33101
-48549 -36411 30343
-44184 -33138 27615
-39888 -29916 24930
-35681 -26761 22300
-31577 -23683 19736
-27590 -20692 17243
-23734 -17800 14833
-20033 -15025 12521
-16512 -12384 10320
-13188 -9891 8242
-10079 -7559 6299
-7197 -5398 4498
-4553 -3415 2845
-2153 -1615 1346
-1 -1 0
1902 1426 -1189
3567 2675 -2229
5015 3761 -3134
6275 4706 -3922
7366 5524 -4603
8290 6217 -5181
9060 6795 -5663
9691 7268 -6056
10193 7645 -6370
10580 7935 -6612
10864 8148 -6790
11060 8295 -6913
11190 8392 -6994
11275 8456 -7047
11337 8503 -7085
11397 8547 -7123
11475 8606 -7172
11594 8695 -7246
11772 8829 -7357
12031 9023 -7519
12389 9292 -7743
12854 9641 -8034
13408 10056 -8380
14029 10522 -8768
14696 11022 -9185
15385 11538 -9615
16074 12056 -10046
16741 12556 -10463
17362 13022 -10851
17915 13436 -11197
18375 13781 -11484
18731 14048 -11707
19002 14251 -11876
19206 14404 -12004
19364 14523 -12102
19494 14620 -12184
19617 14712 -12260
19750 14812 -12344
19913 14935 -12445
20123 15092 -12577
20399 15299 -12749
20749 15561 -12968
21159 15869 -13224
21615 16211 -13509
22106 16580 -13816
22624 16968 -14140
23158 17368 -14474
23694 17770 -14809
24220 18165 -15137
24723 18542 -15452
25191 18893 -15744
25618 19213 -16011
26015 19511 -16259
26393 19794 -16495
26764 20073 -16727
27140 20355 -16962
27532 20649 -17208
27954 20965 -17471
28416 21312 -17760
28930 21697 -18081
29509 22131 -18443
30156 22617 -18847
30864 23148 -19290
31620 23715 -19762
32414 24311 -20259
33235 24926 -20772
34072 25554 -21295
34913 26185 -21820
35748 26811 -22342
36565 27424 -22853
37354 28015 -23346
38109 28582 -23818
38839 29129 -24274
39551 29663 -24719
40256 30192 -25160
40963 30722 -25602
41680 31260 -26050
42418 31813 -26511
43184 32388 -26990
43989 32992 -27493
44842 33631 -28026
45746 34310 -28591
46699 35024 -29186
47693 35770 -29808
48724 36543 -30452
49785 37339 -31116
50872 38154 -31795
51978 38983 -32486
53098 39823 -33186
54226 40669 -33891
55358 41518 -34598
56492 42369 -35308
57637 43228 -36023
58802 44101 -36751
59995 44996 -37497
61225 45918 -38265
62501 46876 -39063
63832 47874 -39895
65227 48920 -40767
66695 50021 -41684
68244 51183 -42653
69877 52407 -43673
71577 53682 -44735
73328 54996 -45830
75113 56335 -46946
76916 57687 -48072
78719 59039 -49199
80505 60379 -50315
82257 61693 -51411
83959 62969 -52474
85594 64195 -53496
87152 65364 -54470
88647 66485 -55404
90092 67569 -56307
91500 68625 -57188
92887 69665 -58054
94265 70699 -58915
95649 71736 -59780
97052 72789 -60657
98488 73866 -61555
99972 74979 -62482
101510 76132 -63443
103092 77319 -64432
104708 78531 -65443
106348 79761 -66467
108000 81000 -67500
109653 82240 -68533
111297 83473 -69561
112920 84690 -70575
114512 85884 -71570
116062 87046 -72538
117565 88174 -73478
119033 89275 -74396
120480 90360 -75300
121918 91438 -76198
123360 92520 -77100
124821 93616 -78013
126312 94734 -78945
127848 95886 -79905
129441 97081 -80901
131105 98329 -81940
132844 99633 -83028
134650 100987 -84156
136507 102380 -85317
138405 103804 -86503
140330 105247 -87706
142269 106702 -88918
144211 108158 -90131
146140 109605 -91338
148046 111035 -92529
149916 112437 -93697
151739 113804 -94836
153512 115134 -95945
155234 116426 -97021
156903 117677 -98064
158517 118888 -99073
160073 120055 -100046
161571 121178 -100981
163006 122255 -101879
164379 123284 -102736
165686 124264 -103553
166928 125196 -104330
168115 126086 -105072
169255 126941 -105784
170358 127768 -106473
171432 128574 -107145
172488 129366 -107805
173534 130150 -108458
174579 130934 -109112
175634 131725 -109771
176706 132529 -110441
177799 133349 -111124
178908 134181 -111818
180024 135018 -112515
181137 135853 -113211
182240 136680 -113900
183324 137493 -114577
184380 138285 -115238
185401 139050 -115875
186377 139782 -116485
187301 140475 -117063
188168 141126 -117605
188977 141733 -118111
189731 142298 -118581
190428 142821 -119017
191070 143302 -119418
191657 143742 -119785
192190 144142 -120119
192670 144502 -120419
193098 144823 -120686
193473 145105 -120921
193797 145348 -121123
194069 145552 -121293
194289 145716 -121430
194454 145840 -121534
194565 145924 -121603
194621 145966 -121638
194622 145966 -121639
194566 145924 -121604
194453 145840 -121533
194283 145712 -121426
194054 145540 -121283
193765 145323 -121103
193414 145061 -120884
193001 144750 -120625
192522 144392 -120326
191978 143983 -119986
191366 143524 -119603
190684 143013 -119178
189933 142449 -118708
189109 141831 -118193
188215 141161 -117634
187263 140447 -117039
186264 139698 -116415
185230 138923 -115769
184174 138131 -115109
183108 137331 -114442
182043 136532 -113777
180992 135744 -113120
179968 134976 -112480
178981 134236 -111863
178039 133529 -111274
177130 132848 -110706
176244 132183 -110153
175369 131527 -109606
174494 130870 -109059
173606 130205 -108504
172695 129521 -107934
171749 128812 -107343
170757 128067 -106723
169706 127279 -106066
168589 126442 -105368
167406 125554 -104629
166156 124617 -103848
164841 123631 -103026
163461 122595 -102163
162016 121512 -101260
160506 120380 -100316
158933 119200 -99333
157297 117973 -98310
155598 116699 -97249
153840 115380 -96150
152031 114023 -95019
150182 112636 -93863
148301 111225 -92688
146398 109798 -91499
144483 108362 -90302
142566 106925 -89104
140657 105492 -87910
138764 104073 -86727
136898 102673 -85561
135066 101299 -84416
133268 99951 -83293
131505 98629 -82191
129776 97332 -81110
128082 96061 -80051
126421 94816 -79013
124795 93596 -77997
123202 92402 -77001
121644 91233 -76027
120120 90090 -75075
118626 88970 -74141
117150 87862 -73219
115678 86759 -72299
114197 85647 -71373
112692 84519 -70432
111151 83363 -69469
109559 82169 -68474
107904 80928 -67440
106171 79628 -66356
104347 78260 -65216
102427 76820 -64017
100428 75321 -62767
98364 73773 -61477
96254 72190 -60158
94116 70587 -58822
91969 68976 -57480
89831 67373 -56144
87720 65790 -54825
85655 64241 -53534
83653 62740 -52283
81728 61296 -51080
79873 59905 -49921
78084 58563 -48802
76353 57265 -47720
74675 56006 -46671
73042 54782 -45651
71450 53587 -44656
69891 52418 -43682
68359 51269 -42724
66847 50135 -41779
65353 49014 -40845
63878 47908 -39924
62427 46820 -39017
61003 45752 -38127
59609 44707 -37256
58250 43688 -36406
56929 42697 -35580
55649 41737 -34781
54415 40811 -34009
53228 39921 -33268
52091 39068 -32557
50997 38248 -31873
49939 37454 -31211
48908 36681 -30567
47899 35924 -29937
46903 35177 -29314
45913 34435 -28696
44923 33692 -28076
43923 32942 -27452
42908 32181 -26818
41874 31406 -26171
40826 30620 -25516
39771 29828 -24857
38717 29037 -24198
37669 28252 -23543
36635 27476 -22897
35621 26716 -22263
34635 25976 -21647
33683 25262 -21052
32772 24579 -20482
31906 23929 -19941
31083 23312 -19427
30301 22726 -18938
29557 22168 -18473
28849 21636 -18030
28173 21130 -17608
27527 20645 -17204
26909 20181 -16818
26315 19736 -16446
25742 19307 -16089
25188 18891 -15742
24642 18481 -15401
24097 18072 -15060
23543 17657 -14714
22972 17229 -14357
22375 16781 -13984
21743 16307 -13589
21067 15800 -13166
20338 15253 -12711
19547 14660 -12217
18695 14021 -11684
17803 13352 -11127
16896 12672 -10560
15997 11998 -9998
15132 11349 -9458
14326 10744 -8953
13602 10201 -8501
12985 9738 -8115
12499 9374 -7812
12170 9127 -7606
12006 9004 -7503
11980 8985 -7487
12060 9045 -7537
12215 9161 -7634
12411 9308 -7757
12617 9463 -7886
12802 9601 -8001
12932 9699 -8082
12976 9732 -8110
12904 9678 -8065
12701 9525 -7938
12392 9294 -7745
12010 9008 -7506
11586 8689 -7241
11150 8363 -6969
10736 8052 -6710
10373 7780 -6483
10094 7570 -6308
9930 7447 -6206
9912 7434 -6195
10054 7540 -6283
10324 7743 -6452
10686 8014 -6678
11101 8326 -6938
11533 8650 -7208
11945 8959 -7465
12299 9224 -7686
12557 9418 -7848
12683 9512 -7927
12640 9480 -7900
12409 9306 -7755
12019 9014 -7512
11508 8631 -7192
10909 8182 -6818
10261 7695 -6413
9597 7198 -5998
8955 6716 -5597
8370 6278 -5231
7878 5909 -4924
7516 5637 -4697
7303 5477 -4564
7225 5419 -4516
7262 5447 -4539
7394 5545 -4621
7600 5700 -4750
7860 5895 -4912
8154 6116 -5096
8462 6347 -5289
8764 6573 -5477
9039 6779 -5649
9272 6954 -5795
9460 7095 -5913
9603 7202 -6002
9699 7274 -6062
9748 7311 -6092
9747 7310 -6092
9697 7272 -6060
9595 7196 -5997
9441 7081 -5901
9235 6926 -5772
8979 6734 -5612
8692 6519 -5432
8391 6293 -5244
8095 6071 -5059
7824 5868 -4890
7595 5696 -4747
7428 5571 -4642
7341 5505 -4588
7353 5514 -4595
7482 5612 -4676
7737 5802 -4835
8095 6071 -5059
8531 6398 -5332
9020 6765 -5637
9537 7152 -5960
10056 7542 -6285
10551 7913 -6594
10998 8249 -6874
11372 8529 -7107
11646 8734 -7278
11806 8855 -7379
11867 8900 -7417
11846 8884 -7403
11760 8820 -7350
11626 8720 -7266
11464 8598 -7165
11289 8467 -7055
11120 8340 -6950
10974 8230 -6859
10869 8152 -6793
10816 8112 -6760
10812 8109 -6757
10850 8137 -6781
10924 8193 -6827
11029 8271 -6893
11158 8368 -6973
11305 8478 -7065
11464 8598 -7165
11629 8722 -7268
11794 8845 -7371
11952 8964 -7470
12094 9070 -7559
12210 9158 -7631
12292 9219 -7682
12330 9247 -7706
12314 9235 -7696
12236 9177 -7647
12085 9064 -7553
11853 8890 -7408
11530 8648 -7206
11119 8339 -6949
10645 7984 -6653
10142 7606 -6338
9640 7230 -6025
9172 6879 -5732
8769 6577 -5480
8463 6347 -5289
8286 6214 -5179
8269 6202 -5168
8445 6334 -5278
8825 6619 -5516
9375 7031 -5859
10051 7538 -6282
10811 8108 -6757
11613 8710 -7258
12414 9310 -7759
13171 9878 -8232
13842 10382 -8651
14385 10788 -8990
14756 11067 -9222
14932 11199 -9332
14935 11201 -9334
14798 11098 -9248
14548 10911 -9092
14218 10663 -8886
13836 10377 -8648
13434 10076 -8396
13042 9781 -8151
12690 9517 -7931
12407 9305 -7754
12216 9162 -7635
12114 9085 -7571
12093 9070 -7558
12148 9111 -7592
12272 9204 -7670
12459 9344 -7787
12703 9527 -7939
12996 9747 -8122
13333 10000 -8333
13708 10281 -8567
14110 10583 -8819
14526 10895 -9079
14939 11204 -9337
15333 11500 -9583
15691 11768 -9807
15997 11998 -9998
16236 12177 -10147
16390 12292 -10244
16444 12333 -10277
16381 12286 -10238
16197 12148 -10123
15916 11937 -9947
15566 11674 -9729
15176 11382 -9485
14775 11081 -9234
14390 10793 -8994
14052 10539 -8782
13788 10341 -8617
13626 10220 -8516
13597 10197 -8498
13712 10284 -8570
13947 10460 -8717
14271 10703 -8919
14653 10990 -9158
15062 11297 -9414
15468 11601 -9667
15838 11878 -9899
16142 12107 -10089
16349 12262 -10218
16429 12322 -10268
16364 12273 -10227
16177 12132 -10110
15894 11920 -9934
15543 11657 -9714
15151 11363 -9469
14746 11060 -9216
14355 10766 -8972
14006 10504 -8753
13724 10293 -8578
13539 10154 -8462
13466 10099 -8416
13491 10118 -8432
13599 10199 -8499
13771 10328 -8607
13990 10492 -8743
14239 10679 -8899
14500 10875 -9062
14756 11067 -9222
14990 11243 -9369
15185 11388 -9490
15328 11496 -9580
15424 11568 -9640
15479 11609 -9674
15499 11624 -9687
15491 11618 -9682
15460 11595 -9662
15413 11559 -9633
15355 11516 -9597
15294 11470 -9559
15235 11426 -9522
15184 11388 -9490
15143 11357 -9464
15116 11337 -9448
15106 11329 -9441
15114 11335 -9446
15144 11358 -9465
15199 11399 -9499
15280 11460 -9550
15392 11544 -9620
15537 11652 -9710
15713 11785 -9821
15912 11934 -9945
16121 12091 -10076
16330 12247 -10206
16527 12395 -10329
16700 12525 -10437
16839 12629 -10524
16932 12699 -10582
16967 12725 -10604
16934 12700 -10583
16828 12621 -10517
16668 12501 -10417
16471 12353 -10294
16260 12195 -10162
16054 12041 -10034
15876 11907 -9922
15747 11810 -9841
15687 11765 -9804
15718 11788 -9824
15861 11896 -9913
16127 12095 -10079
16494 12370 -10308
16937 12703 -10586
17432 13074 -10895
17954 13465 -11221
18476 13857 -11547
18974 14230 -11859
19423 14567 -12139
19798 14848 -12373
20073 15055 -12546
20234 15176 -12646
20293 15219 -12683
20265 15199 -12665
20167 15125 -12604
20016 15012 -12510
19827 14870 -12391
19616 14712 -12260
19401 14551 -12125
19197 14397 -11998
19020 14265 -11887
18885 14164 -11803
18802 14102 -11751
18780 14085 -11738
18829 14121 -11768
18956 14217 -11847
19172 14379 -11982
19486 14614 -12178
19906 14929 -12441
20442 15331 -12776
21103 15827 -13189
21891 16418 -13681
22783 17087 -14239
23755 17816 -14846
24782 18587 -15489
25841 19381 -16150
26906 20179 -16816
27952 20964 -17470
28955 21716 -18097
29890 22417 -18681
30733 23049 -19208
31467 23600 -19667
32104 24078 -20065
32656 24492 -20410
33136 24852 -20710
33558 25169 -20974
33937 25452 -21210
34285 25713 -21428
34615 25961 -21634
34942 26206 -21839
35279 26459 -22049
35639 26729 -22274
36036 27027 -22523
36483 27362 -22802
36992 27744 -23120
37577 28182 -23485
38250 28688 -23906
39026 29269 -24391
39916 29937 -24947
40935 30701 -25584
42094 31570 -26309
43397 32548 -27123
44820 33615 -28012
46333 34750 -28958
47907 35930 -29941
49512 37134 -30945
51121 38340 -31950
52703 39527 -32939
54229 40672 -33893
55671 41753 -34794
56999 42749 -35624
58199 43649 -36374
59305 44479 -37066
60359 45269 -37724
61388 46041 -38368
62423 46817 -39014
63492 47619 -39682
64624 48468 -40390
65849 49387 -41156
67196 50397 -41997
68694 51521 -42934
70359 52769 -43974
72171 54128 -45107
74102 55576 -46314
76126 57094 -47579
78216 58662 -48885
80346 60259 -50216
82488 61866 -51555
84618 63463 -52886
86707 65030 -54192
88730 66548 -55456
90670 68002 -56668
92530 69397 -57831
94320 70740 -58950
96048 72036 -60030
97725 73294 -61078
99359 74519 -62099
100959 75719 -63099
102534 76900 -64083
104094 78070 -65058
105648 79236 -66030
107201 80401 -67000
108747 81560 -67967
110277 82707 -68923
111782 83837 -69864
113255 84941 -70784
114687 86015 -71679
116069 87052 -72543
117393 88045 -73371
118652 88989 -74157
119837 89878 -74898
120944 90708 -75590
121977 91483 -76236
122945 92208 -76840
123853 92890 -77408
124710 93532 -77943
125521 94141 -78451
126296 94722 -78935
127040 95280 -79400
127762 95821 -79851
128468 96351 -80292
129162 96871 -80726
129833 97375 -81146
130470 97853 -81544
131061 98295 -81913
131592 98694 -82245
132054 99040 -82533
132433 99325 -82770
132718 99538 -82948
132897 99673 -83060
132959 99719 -83099
132895 99671 -83059
132711 99533 -82944
132413 99310 -82758
132007 99005 -82504
131498 98624 -82186
130895 98171 -81809
130203 97652 -81377
129429 97072 -80893
128579 96434 -80362
127661 95746 -79788
126680 95010 -79175
125641 94230 -78525
124546 93409 -77841
123399 92549 -77124
122205 91654 -76378
120968 90726 -75605
119690 89767 -74806
118376 88782 -73985
117030 87772 -73143
115656 86742 -72285
114256 85692 -71410
112833 84625 -70521
111386 83540 -69616
109916 82437 -68697
108421 81315 -67763
106901 80176 -66813
105356 79017 -65847
103785 77839 -64866
102188 76641 -63867
100564 75423 -62852
98912 74184 -61820
97236 72927 -60772
95536 71652 -59710
93815 70361 -58634
92076 69057 -57548
90321 67740 -56450
88551 66413 -55344
86768 65076 -54230
84974 63731 -53109
83172 62379 -51982
81361 61021 -50851
79543 59657 -49714
77717 58288 -48573
75883 56912 -47427
74040 55530 -46275
72189 54141 -45118
70328 52746 -43955
68457 51342 -42785
66575 49931 -41609
64682 48511 -40426
62779 47084 -39237
60872 45654 -38045
58970 44227 -36856
57079 42809 -35674
55206 41404 -34504
53359 40019 -33349
51546 38660 -32216
49773 37330 -31108
48048 36036 -30030
46377 34783 -28985
44766 33575 -27979
43220 32415 -27012
41740 31305 -26087
40331 30248 -25206
38994 29245 -24371
37733 28299 -23583
36550 27412 -22843
35448 26586 -22155
34430 25822 -21519
33498 25123 -20936
32651 24488 -20407
31879 23909 -19924
31169 23376 -19480
30509 22882 -19068
29888 22416 -18680
29292 21969 -18307
28709 21532 -17943
28127 21095 -17579
27533 20650 -17208
26914 20185 -16821
26262 19696 -16414
25583 19187 -15989
24885 18663 -15553
24175 18131 -15109
23462 17596 -14663
22753 17064 -14220
22055 16541 -13784
21378 16033 -13361
20727 15545 -12954
20111 15083 -12569
19534 14650 -12208
18997 14247 -11873
18497 13873 -11561
18033 13525 -11271
17602 13201 -11001
17199 12899 -10749
16823 12617 -10514
16468 12351 -10293
16132 12099 -10082
15809 11857 -9881
15496 11622 -9685
15186 11390 -9491
14875 11156 -9297
14556 10917 -9098
14224 10668 -8890
13871 10403 -8669
13492 10119 -8432
13078 9809 -8174
12624 9468 -7890
12120 9090 -7575
11561 8671 -7226
10941 8205 -6838
10253 7690 -6408
9493 7120 -5933
8654 6491 -5409
7731 5798 -4832
6715 5036 -4197
5602 4201 -3501
4382 3287 -2739
3050 2287 -1906
1597 1197 -998
15 11 -9
-1706 -1279 1066
-3579 -2684 2236
-5597 -4198 3498
-7751 -5813 4844
-10029 -7521 6268
-12417 -9313 7761
-14902 -11176 9314
-17466 -13099 10916
-20094 -15070 12558
-22773 -17080 14233
-25493 -19119 15933
-28238 -21178 17649
-30994 -23245 19371
-33743 -25307 21089
-36467 -27350 22792
-39146 -29359 24466
-41758 -31318 26098
-44279 -33209 27674
-46678 -35008 29174
-48906 -36680 30566
-50909 -38181 31818
-52629 -39472 32893
-54010 -40507 33756
-54992 -41244 34370
-55513 -41635 34696
-55513 -41634 34695
-54925 -41194 34328
-53685 -40264 33553
-51733 -38800 32333
-49029 -36772 30643
-45536 -34152 28460
-41215 -30911 25759
-36064 -27048 22540
-30146 -22609 18841
-23423 -17567 14639
-15860 -11895 9912
-7432 -5574 4645
1876 1407 -1172
12076 9057 -7547
23178 17384 -14486
35189 26391 -21993
48101 36076 -30063
61902 46426 -38688
76565 57424 -47853
92058 69043 -57536
108337 81252 -67710
125348 94011 -78342
143029 107271 -89393
161307 120980 -100817
180100 135075 -112562
199317 149487 -124573
218855 164141 -136784
238605 178954 -149128
258445 193834 -161528
278245 208684 -173903
297865 223399 -186166
317156 237867 -198223
335959 251969 -209974
354105 265579 -221316
371417 278562 -232135
387706 290780 -242316
402777 302082 -251735
416316 312237 -260197
428153 321115 -267596
438247 328685 -273904
446567 334925 -279104
453090 339817 -283181
457801 343351 -286126
460694 345521 -287934
461761 346321 -288601
461001 345751 -288125
458422 343817 -286514
454042 340532 -283776
447887 335915 -279929
439992 329994 -274995
430400 322800 -269000
419165 314374 -261978
406349 304762 -253968
392027 294020 -245017
376302 282226 -235189
359286 269465 -224554
341103 255827 -213189
321884 241413 -201177
301769 226327 -188606
280908 210681 -175567
259458 194593 -162161
237587 178190 -148491
215470 161602 -134669
193288 144966 -120805
171212 128409 -107008
149422 112067 -93389
128105 96079 -80066
107457 80593 -67160
87683 65762 -54802
68998 51748 -43123
51564 38673 -32227
35122 26341 -21951
19613 14710 -12258
5048 3786 -3155
-8558 -6418 5348
-21197 -15898 13248
-32862 -24646 20538
-43549 -32662 27218
-53260 -39945 33287
-61999 -46499 38749
-69776 -52332 43610
-76603 -57452 47876
-82496 -61872 51560
-87473 -65605 54671
-91554 -68665 57221
-94758 -71068 59223
-97109 -72831 60693
-98636 -73977 61647
-99370 -74528 62106
-99349 -74511 62093
-98611 -73958 61632
-97200 -72900 60750
-95164 -71373 59477
-92558 -69418 57848
-89454 -67090 55908
-85931 -64448 53707
-82071 -61553 51294
-77960 -58470 48725
-73689 -55266 46055
-69315 -51986 43322
-64883 -48662 40552
-60444 -45333 37777
-56044 -42033 35027
-51723 -38792 32327
-47500 -35625 29688
-43391 -32543 27119
-39406 -29555 24629
-35555 -26666 22222
-31844 -23883 19902
-28277 -21208 17673
-24855 -18641 15534
-21577 -16183 13486
-18440 -13830 11525
-15442 -11581 9651
-12598 -9448 7873
-9921 -7441 6201
-7425 -5569 4640
-5119 -3839 3199
-3009 -2256 1880
-1100 -825 687
604 453 -378
2108 1581 -1317
3412 2559 -2132
4528 3396 -2830
5480 4110 -3425
6301 4726 -3938
7025 5269 -4390
7670 5753 -4794
8235 6176 -5147
8734 6550 -5458
9179 6884 -5737
9585 7189 -5991
9966 7474 -6228
10331 7748 -6457
10683 8012 -6676
11021 8266 -6888
11347 8510 -7092
11660 8745 -7288
11960 8970 -7475
12245 9184 -7653
12515 9386 -7822
12769 9576 -7980
13004 9753 -8127
13221 9916 -8263
13424 10068 -8390
13616 10212 -8510
13802 10351 -8626
13984 10488 -8740
14168 10626 -8855
14355 10766 -8972
14550 10912 -9093
14753 11065 -9221
14969 11227 -9355
15199 11399 -9499
15446 11585 -9654
15713 11785 -9821
16002 12002 -10001
16316 12237 -10197
16655 12491 -10409
17022 12766 -10638
17420 13065 -10887
17856 13392 -11160
18334 13750 -11458
18854 14140 -11784
19410 14557 -12131
19992 14994 -12495
20594 15445 -12871
21205 15904 -13253
21818 16364 -13636
22425 16819 -14015
23016 17262 -14385
23584 17688 -14740
24119 18089 -15074
24618 18463 -15386
25087 18815 -15679
25538 19153 -15961
25980 19485 -16237
26424 19818 -16515
26879 20159 -16799
27355 20516 -17097
27864 20898 -17415
28415 21311 -17759
29018 21763 -18136
29678 22259 -18549
30387 22790 -18992
31133 23349 -19458
31902 23926 -19938
32682 24511 -20426
33462 25096 -20914
34229 25671 -21393
34970 26228 -21856
35674 26756 -22296
36328 27246 -22705
36927 27695 -23079
37484 28113 -23427
38018 28513 -23761
38547 28910 -24092
39091 29318 -24432
39667 29750 -24792
40294 30221 -25184
40991 30743 -25619
41776 31332 -26110
42668 32001 -26667
43678 32758 -27298
44797 33598 -27998
46012 34509 -28757
47309 35481 -29568
48674 36505 -30421
50092 37569 -31308
51551 38663 -32219
53036 39777 -33147
54533 40900 -34083
56028 42021 -35017
57510 43132 -35944
58977 44232 -36860
60427 45320 -37767
61863 46397 -38664
63282 47461 -39551
64685 48513 -40428
66071 49553 -41294
67440 50580 -42150
68791 51593 -42994
70125 52594 -43828
71443 53582 -44652
72751 54563 -45469
74056 55542 -46285
75367 56525 -47104
76691 57518 -47932
78036 58527 -48772
79409 59557 -49630
80818 60613 -50511
82270 61702 -51418
83773 62830 -52358
85332 63999 -53332
86943 65207 -54339
88600 66450 -55375
90299 67724 -56437
92033 69025 -57521
93797 70348 -58623
95586 71689 -59741
97393 73045 -60871
99214 74410 -62008
101042 75781 -63151
102873 77155 -64296
104705 78529 -65440
106536 79902 -66585
108364 81273 -67728
110189 82642 -68868
112008 84006 -70005
113820 85365 -71137
115623 86717 -72264
117416 88062 -73385
119196 89397 -74497
120962 90722 -75601
122710 92032 -76693
124433 93325 -77771
126128 94596 -78830
127790 95842 -79868
129413 97060 -80883
130993 98244 -81870
132524 99393 -82828
134003 100502 -83752
135423 101567 -84639
136784 102588 -85490
138098 103573 -86311
139381 104536 -87113
140649 105487 -87905
141916 106437 -88697
143198 107398 -89499
144510 108383 -90319
145868 109401 -91167
