170
187
242
43
246
242
43
246
242
43
246
0
0
0
0
0
0
0
0
0
0
0
0
0
0
0
0
0
0
0
0
0
0
0
0
128
10
170
187
242
43
246
242
43
246
242
43
246
0
0
0
0
0
0
0
0
0
0
0
0
0
0
0
0
0
0
0
0
0
0
0
0
128
10
170
187
242
43
246
242
43
246
242
43
246
255
242
43
255
242
43
255
242
43
0
0
0
0
0
0
0
0
0
0
0
0
0
0
0
128
10
170
187
242
43
246
242
43
246
242
43
246
255
48
147
255
48
147
255
48
147
0
0
0
0
0
0
0
0
0
0
0
0
0
0
0
128
10
170
187
244
142
80
244
142
80
244
142
80
252
111
85
252
111
85
252
111
85
0
0
0
0
0
0
0
0
0
0
0
0
0
0
0
128
10
170
187
242
43
246
242
43
246
242
43
246
247
229
194
247
229
194
247
229
194
255
255
255
255
255
255
255
255
255
0
0
0
0
0
0
128
10
170
187
240
189
192
240
189
192
240
189
192
244
18
85
244
18
85
244
18
85
255
255
255
255
255
255
255
255
255
0
0
0
0
0
0
128
10
170
187
240
189
192
240
189
192
240
189
192
242
140
194
242
140
194
242
140
194
255
255
255
255
255
255
255
255
255
0
0
0
0
0
0
128
10
170
187
238
213
120
238
213
120
238
213
120
242
147
111
242
147
111
242
147
111
255
255
253
255
255
253
255
255
253
0
0
0
0
0
0
128
10
170
187
239
201
156
239
201
156
239
201
156
243
109
89
243
109
89
243
109
89
255
255
248
255
255
248
255
255
248
0
0
0
0
0
0
128
10
170
187
239
79
138
239
79
138
239
79
138
245
189
26
245
189
26
245
189
26
255
255
233
255
255
233
255
255
233
0
0
0
0
0
0
128
10
170
187
237
225
84
237
225
84
237
225
84
249
96
93
249
96
93
249
96
93
255
255
199
255
255
199
255
255
199
0
0
0
0
0
0
128
10
170
187
241
55
210
241
55
210
241
55
210
252
64
32
252
64
32
252
64
32
255
255
122
255
255
122
255
255
122
0
0
0
0
0
0
128
10
170
187
241
55
210
241
55
210
241
55
210
253
38
112
253
38
112
253
38
112
255
254
219
255
254
219
255
254
219
0
0
0
0
0
0
128
10
170
187
236
115
30
236
115
30
236
115
30
252
245
205
252
245
205
252
245
205
255
253
166
255
253
166
255
253
166
0
0
0
0
0
0
128
10
170
187
234
138
214
234
138
214
234
138
214
252
209
144
252
209
144
252
209
144
255
251
109
255
251
109
255
251
109
0
0
0
0
0
0
128
10
170
187
232
40
124
232
40
124
232
40
124
253
118
140
253
118
140
253
118
140
255
247
138
255
247
138
255
247
138
0
0
0
0
0
0
128
10
170
187
229
198
34
229
198
34
229
198
34
254
155
84
254
155
84
254
155
84
255
241
8
255
241
8
255
241
8
0
0
0
0
0
0
128
10
170
187
229
198
34
229
198
34
229
198
34
254
181
20
254
181
20
254
181
20
255
230
153
255
230
153
255
230
153
0
0
0
0
0
0
128
10
170
187
231
174
106
231
174
106
231
174
106
253
12
176
253
12
176
253
12
176
255
214
133
255
214
133
255
214
133
0
0
0
0
0
0
128
10
170
187
229
198
34
229
198
34
229
198
34
250
178
114
250
178
114
250
178
114
255
190
165
255
190
165
255
190
165
0
0
0
0
0
0
128
10
170
187
228
87
236
228
87
236
228
87
236
248
191
172
248
191
172
248
191
172
255
156
108
255
156
108
255
156
108
0
0
0
0
0
0
128
10
170
187
228
87
236
228
87
236
228
87
236
247
79
20
247
79
20
247
79
20
255
108
249
255
108
249
255
108
249
0
0
0
0
0
0
128
10
170
187
227
221
218
227
221
218
227
221
218
246
150
138
246
150
138
246
150
138
255
45
71
255
45
71
255
45
71
0
0
0
0
0
0
128
10
170
187
228
209
254
228
209
254
228
209
254
247
52
218
247
52
218
247
52
218
254
218
90
254
218
90
254
218
90
0
0
0
0
0
0
128
10
170
187
229
198
34
229
198
34
229
198
34
248
228
100
248
228
100
248
228
100
254
113
138
254
113
138
254
113
138
0
0
0
0
0
0
128
10
170
187
228
209
254
228
209
254
228
209
254
250
177
248
250
177
248
250
177
248
253
240
207
253
240
207
253
240
207
0
0
0
0
0
0
128
10
170
187
228
87
236
228
87
236
228
87
236
252
55
139
252
55
139
252
55
139
253
87
5
253
87
5
253
87
5
0
0
0
0
0
0
128
10
170
187
229
76
16
229
76
16
229
76
16
253
106
39
253
106
39
253
106
39
252
164
50
252
164
50
252
164
50
0
0
0
0
0
0
128
10
170
187
227
99
200
227
99
200
227
99
200
254
46
34
254
46
34
254
46
34
251
217
167
251
217
167
251
217
167
0
0
0
0
0
0
128
10
170
187
225
123
128
225
123
128
225
123
128
254
152
119
254
152
119
254
152
119
250
250
19
250
250
19
250
250
19
0
0
0
0
0
0
128
10
170
187
221
170
240
221
170
240
221
170
240
254
242
150
254
242
150
254
242
150
250
9
106
250
9
106
250
9
106
0
0
0
0
0
0
128
10
170
187
219
72
150
219
72
150
219
72
150
255
86
185
255
86
185
255
86
185
249
12
182
249
12
182
249
12
182
0
0
0
0
0
0
128
10
170
187
212
155
154
212
155
154
212
155
154
255
96
189
255
96
189
255
96
189
248
9
206
248
9
206
248
9
206
0
0
0
0
0
0
128
10
170
187
209
191
46
209
191
46
209
191
46
254
89
11
254
89
11
254
89
11
247
6
240
247
6
240
247
6
240
0
0
0
0
0
0
128
10
170
187
224
135
92
224
135
92
224
135
92
251
246
177
251
246
177
251
246
177
246
10
96
246
10
96
246
10
96
0
0
0
0
0
0
128
10
170
187
249
83
4
249
83
4
249
83
4
248
199
199
248
199
199
248
199
199
245
26
16
245
26
16
245
26
16
0
0
0
0
0
0
128
10
170
187
35
195
70
35
195
70
35
195
70
245
120
113
245
120
113
245
120
113
244
59
70
244
59
70
244
59
70
0
0
0
0
0
0
128
10
170
187
74
98
248
74
98
248
74
98
248
243
113
42
243
113
42
243
113
42
243
114
102
243
114
102
243
114
102
0
0
0
0
0
0
128
10
170
187
72
244
194
72
244
194
72
244
194
246
231
155
246
231
155
246
231
155
242
194
202
242
194
202
242
194
202
0
0
0
0
0
0
128
10
170
187
16
54
100
16
54
100
16
54
100
5
79
241
5
79
241
5
79
241
242
46
192
242
46
192
242
46
192
0
0
0
0
0
0
128
10
170
187
221
48
222
221
48
222
221
48
222
32
119
70
32
119
70
32
119
70
241
183
133
241
183
133
241
183
133
0
0
0
0
0
0
128
10
170
187
215
120
6
215
120
6
215
120
6
66
6
114
66
6
114
66
6
114
241
93
88
241
93
88
241
93
88
0
0
0
0
0
0
128
10
170
187
224
135
92
224
135
92
224
135
92
89
244
96
89
244
96
89
244
96
241
31
156
241
31
156
241
31
156
0
0
0
0
0
0
128
10
170
187
224
13
74
224
13
74
224
13
74
86
228
238
86
228
238
86
228
238
240
252
233
240
252
233
240
252
233
0
0
0
0
0
0
128
10
170
187
224
135
92
224
135
92
224
135
92
54
189
196
54
189
196
54
189
196
240
243
53
240
243
53
240
243
53
0
0
0
0
0
0
128
10
170
187
225
245
146
225
245
146
225
245
146
9
200
89
9
200
89
9
200
89
240
255
237
240
255
237
240
255
237
0
0
0
0
0
0
128
10
170
187
225
123
128
225
123
128
225
123
128
224
23
77
224
23
77
224
23
77
241
32
36
241
32
36
241
32
36
0
0
0
0
0
0
128
10
170
187
223
147
56
223
147
56
223
147
56
190
162
213
190
162
213
190
162
213
241
80
192
241
80
192
241
80
192
0
0
0
0
0
0
128
10
170
187
223
25
38
223
25
38
223
25
38
171
150
177
171
150
177
171
150
177
241
142
192
241
142
192
241
142
192
0
0
0
0
0
0
128
10
170
187
224
135
92
224
135
92
224
135
92
178
16
47
178
16
47
178
16
47
241
215
148
241
215
148
241
215
148
0
0
0
0
0
0
128
10
170
187
224
135
92
224
135
92
224
135
92
207
164
91
207
164
91
207
164
91
242
41
142
242
41
142
242
41
142
0
0
0
0
0
0
128
10
170
187
224
135
92
224
135
92
224
135
92
239
40
113
239
40
113
239
40
113
242
132
81
242
132
81
242
132
81
0
0
0
0
0
0
128
10
170
187
223
25
38
223
25
38
223
25
38
255
78
36
255
78
36
255
78
36
242
233
89
242
233
89
242
233
89
0
0
0
0
0
0
128
10
170
187
224
13
74
224
13
74
224
13
74
1
230
96
1
230
96
1
230
96
243
92
89
243
92
89
243
92
89
0
1
38
0
0
0
192
10
170
187
226
233
182
226
233
182
226
233
182
0
161
166
0
161
166
0
161
166
243
227
121
243
227
121
243
227
121
0
1
38
0
0
0
128
10
170
187
225
123
128
225
123
128
225
123
128
255
187
85
255
187
85
255
187
85
244
135
65
244
135
65
244
135
65
0
1
38
0
0
0
128
10
170
187
223
147
56
223
147
56
223
147
56
255
31
227
255
31
227
255
31
227
245
82
35
245
82
35
245
82
35
0
1
38
0
0
0
128
10
170
187
223
147
56
223
147
56
223
147
56
255
18
15
255
18
15
255
18
15
246
79
154
246
79
154
246
79
154
0
1
38
0
0
0
128
10
170
187
222
37
2
222
37
2
222
37
2
255
231
175
255
231
175
255
231
175
247
138
191
247
138
191
247
138
191
0
1
38
0
0
0
128
10
170
187
223
147
56
223
147
56
223
147
56
0
193
152
0
193
152
0
193
152
249
12
155
249
12
155
249
12
155
0
1
38
0
0
0
128
10
170
187
224
135
92
224
135
92
224
135
92
0
166
106
0
166
106
0
166
106
250
218
55
250
218
55
250
218
55
0
1
38
0
0
0
128
10
170
187
223
147
56
223
147
56
223
147
56
255
223
147
255
223
147
255
223
147
252
242
208
252
242
208
252
242
208
0
1
38
0
0
0
128
10
170
187
225
1
110
225
1
110
225
1
110
255
79
23
255
79
23
255
79
23
255
78
99
255
78
99
255
78
99
0
1
38
0
0
0
128
10
170
187
224
135
92
224
135
92
224
135
92
255
47
158
255
47
158
255
47
158
1
220
241
1
220
241
1
220
241
0
1
38
0
0
0
128
10
170
187
224
13
74
224
13
74
224
13
74
255
25
53
255
25
53
255
25
53
4
134
169
4
134
169
4
134
169
0
1
38
0
0
0
128
10
170
187
223
147
56
223
147
56
223
147
56
254
240
174
254
240
174
254
240
174
7
45
29
7
45
29
7
45
29
0
1
38
0
0
0
128
10
170
187
223
147
56
223
147
56
223
147
56
255
49
14
255
49
14
255
49
14
9
173
100
9
173
100
9
173
100
0
1
38
0
0
0
128
10
170
187
222
37
2
222
37
2
222
37
2
0
5
63
0
5
63
0
5
63
11
226
252
11
226
252
11
226
252
0
1
38
0
0
0
128
10
170
187
223
25
38
223
25
38
223
25
38
0
214
148
0
214
148
0
214
148
13
170
253
13
170
253
13
170
253
0
1
38
0
0
0
128
10
170
187
225
123
128
225
123
128
225
123
128
0
252
64
0
252
64
0
252
64
14
231
66
14
231
66
14
231
66
0
1
38
0
0
0
128
10
170
187
224
135
92
224
135
92
224
135
92
0
94
228
0
94
228
0
94
228
15
129
6
15
129
6
15
129
6
0
1
38
0
0
0
128
10
170
187
224
135
92
224
135
92
224
135
92
255
137
69
255
137
69
255
137
69
15
106
169
15
106
169
15
106
169
0
1
38
0
0
0
128
10
170
187
224
13
74
224
13
74
224
13
74
255
36
45
255
36
45
255
36
45
14
160
117
14
160
117
14
160
117
0
1
38
0
0
0
128
10
170
187
223
25
38
223
25
38
223
25
38
255
82
233
255
82
233
255
82
233
13
40
106
13
40
106
13
40
106
0
1
38
0
0
0
128
10
170
187
223
147
56
223
147
56
223
147
56
255
181
157
255
181
157
255
181
157
11
17
56
11
17
56
11
17
56
0
1
38
0
0
0
128
10
170
187
224
13
74
224
13
74
224
13
74
255
246
240
255
246
240
255
246
240
8
112
190
8
112
190
8
112
190
0
1
38
0
0
0
128
10
170
187
222
159
20
222
159
20
222
159
20
0
28
34
0
28
34
0
28
34
5
98
91
5
98
91
5
98
91
0
1
38
0
0
0
128
10
170
187
223
25
38
223
25
38
223
25
38
0
54
214
0
54
214
0
54
214
2
5
86
2
5
86
2
5
86
0
1
38
0
0
0
128
10
170
187
224
13
74
224
13
74
224
13
74
0
34
208
0
34
208
0
34
208
254
123
129
254
123
129
254
123
129
0
1
38
0
0
0
128
10
170
187
222
159
20
222
159
20
222
159
20
255
205
116
255
205
116
255
205
116
250
232
16
250
232
16
250
232
16
0
1
38
0
0
0
128
10
170
187
222
37
2
222
37
2
222
37
2
255
108
46
255
108
46
255
108
46
247
110
148
247
110
148
247
110
148
0
1
38
0
0
0
128
10
170
187
223
25
38
223
25
38
223
25
38
255
71
119
255
71
119
255
71
119
244
49
218
244
49
218
244
49
218
0
1
38
0
0
0
128
10
170
187
222
159
20
222
159
20
222
159
20
255
119
160
255
119
160
255
119
160
241
82
143
241
82
143
241
82
143
0
1
38
0
0
0
128
10
170
187
221
170
240
221
170
240
221
170
240
255
189
184
255
189
184
255
189
184
238
237
163
238
237
163
238
237
163
0
1
38
0
0
0
128
10
170
187
221
48
222
221
48
222
221
48
222
255
189
184
255
189
184
255
189
184
237
26
109
237
26
109
237
26
109
0
1
38
0
0
0
128
10
170
187
220
182
204
220
182
204
220
182
204
255
132
128
255
132
128
255
132
128
235
232
212
235
232
212
235
232
212
0
1
38
0
0
0
128
10
170
187
220
182
204
220
182
204
220
182
204
255
84
209
255
84
209
255
84
209
235
95
195
235
95
195
235
95
195
0
1
38
0
0
0
128
10
170
187
222
37
2
222
37
2
222
37
2
255
12
208
255
12
208
255
12
208
235
124
72
235
124
72
235
124
72
0
1
38
0
0
0
128
10
170
187
220
60
186
220
60
186
220
60
186
254
124
208
254
124
208
254
124
208
236
49
154
236
49
154
236
49
154
0
1
38
0
0
0
128
10
170
187
221
48
222
221
48
222
221
48
222
253
247
197
253
247
197
253
247
197
237
106
26
237
106
26
237
106
26
0
1
38
0
0
0
128
10
170
187
221
170
240
221
170
240
221
170
240
253
225
92
253
225
92
253
225
92
239
9
82
239
9
82
239
9
82
0
1
38
0
0
0
128
10
170
187
221
48
222
221
48
222
221
48
222
254
23
184
254
23
184
254
23
184
240
238
178
240
238
178
240
238
178
0
1
38
0
0
0
128
10
170
187
222
37
2
222
37
2
222
37
2
254
75
178
254
75
178
254
75
178
242
248
153
242
248
153
242
248
153
0
1
38
0
0
0
128
10
170
187
225
1
110
225
1
110
225
1
110
254
149
155
254
149
155
254
149
155
245
7
87
245
7
87
245
7
87
0
1
38
0
0
0
128
10
170
187
224
13
74
224
13
74
224
13
74
255
47
37
255
47
37
255
47
37
246
255
177
246
255
177
246
255
177
0
1
38
0
0
0
128
10
170
187
225
245
146
225
245
146
225
245
146
255
252
48
255
252
48
255
252
48
248
204
161
248
204
161
248
204
161
0
1
38
0
0
0
128
10
170
187
227
99
200
227
99
200
227
99
200
0
217
234
0
217
234
0
217
234
250
96
43
250
96
43
250
96
43
0
1
38
0
0
0
128
10
170
187
227
221
218
227
221
218
227
221
218
1
207
124
1
207
124
1
207
124
251
179
71
251
179
71
251
179
71
0
1
38
0
0
0
128
10
170
187
228
209
254
228
209
254
228
209
254
2
203
65
2
203
65
2
203
65
252
197
14
252
197
14
252
197
14
0
1
38
0
0
0
128
10
170
187
231
174
106
231
174
106
231
174
106
3
195
176
3
195
176
3
195
176
253
153
96
253
153
96
253
153
96
0
1
38
0
0
0
128
10
170
187
232
40
124
232
40
124
232
40
124
4
208
159
4
208
159
4
208
159
254
55
79
254
55
79
254
55
79
0
1
38
0
0
0
128
10
170
187
231
174
106
231
174
106
231
174
106
5
209
163
5
209
163
5
209
163
254
167
149
254
167
149
254
167
149
0
1
38
0
0
0
128
10
170
187
234
16
196
234
16
196
234
16
196
6
111
121
6
111
121
6
111
121
254
243
59
254
243
59
254
243
59
0
1
38
0
0
0
128
10
170
187
232
162
142
232
162
142
232
162
142
6
165
91
6
165
91
6
165
91
255
34
168
255
34
168
255
34
168
0
1
38
0
0
0
128
10
170
187
231
174
106
231
174
106
231
174
106
6
191
149
6
191
149
6
191
149
255
60
255
255
60
255
255
60
255
0
1
38
0
0
0
128
10
170
187
232
40
124
232
40
124
232
40
124
6
179
169
6
179
169
6
179
169
255
71
232
255
71
232
255
71
232
0
1
38
0
0
0
128
10
170
187
232
162
142
232
162
142
232
162
142
6
57
29
6
57
29
6
57
29
255
71
158
255
71
158
255
71
158
0
1
38
0
0
0
128
10
170
187
232
40
124
232
40
124
232
40
124
5
89
0
5
89
0
5
89
0
255
63
38
255
63
38
255
63
38
0
1
38
0
0
0
128
10
170
187
230
186
70
230
186
70
230
186
70
4
55
143
4
55
143
4
55
143
255
48
162
255
48
162
255
48
162
0
1
38
0
0
0
128
10
170
187
231
52
88
231
52
88
231
52
88
2
222
84
2
222
84
2
222
84
255
29
172
255
29
172
255
29
172
0
1
38
0
0
0
128
10
170
187
230
64
52
230
64
52
230
64
52
1
139
198
1
139
198
1
139
198
255
7
167
255
7
167
255
7
167
0
1
38
0
0
0
128
10
170
187
231
52
88
231
52
88
231
52
88
0
133
10
0
133
10
0
133
10
254
239
252
254
239
252
254
239
252
0
1
38
0
0
0
128
10
170
187
229
76
16
229
76
16
229
76
16
255
170
166
255
170
166
255
170
166
254
216
75
254
216
75
254
216
75
0
1
38
0
0
0
128
10
170
187
229
198
34
229
198
34
229
198
34
254
237
210
254
237
210
254
237
210
254
194
130
254
194
130
254
194
130
0
1
38
0
0
0
128
10
170
187
231
52
88
231
52
88
231
52
88
254
137
53
254
137
53
254
137
53
254
176
227
254
176
227
254
176
227
0
1
38
0
0
0
128
10
170
187
229
76
16
229
76
16
229
76
16
254
90
244
254
90
244
254
90
244
254
166
1
254
166
1
254
166
1
0
1
38
0
0
0
128
10
170
187
229
198
34
229
198
34
229
198
34
254
10
94
254
10
94
254
10
94
254
164
167
254
164
167
254
164
167
0
1
38
0
0
0
128
10
170
187
230
186
70
230
186
70
230
186
70
253
197
180
253
197
180
253
197
180
254
175
179
254
175
179
254
175
179
0
1
38
0
0
0
128
10
170
187
228
209
254
228
209
254
228
209
254
253
240
158
253
240
158
253
240
158
254
201
251
254
201
251
254
201
251
0
1
38
0
0
0
128
10
170
187
229
76
16
229
76
16
229
76
16
254
91
110
254
91
110
254
91
110
254
246
11
254
246
11
254
246
11
0
1
38
0
0
0
128
10
170
187
228
209
254
228
209
254
228
209
254
254
174
102
254
174
102
254
174
102
255
54
9
255
54
9
255
54
9
0
1
38
0
0
0
128
10
170
187
227
99
200
227
99
200
227
99
200
255
7
146
255
7
146
255
7
146
255
139
112
255
139
112
255
139
112
0
1
38
0
0
0
128
10
170
187
226
233
182
226
233
182
226
233
182
255
112
243
255
112
243
255
112
243
255
246
238
255
246
238
255
246
238
0
1
38
0
0
0
128
10
170
187
227
99
200
227
99
200
227
99
200
255
155
221
255
155
221
255
155
221
0
120
56
0
120
56
0
120
56
0
1
38
0
0
0
128
10
170
187
226
111
164
226
111
164
226
111
164
255
100
19
255
100
19
255
100
19
1
13
244
1
13
244
1
13
244
0
1
38
0
0
0
128
10
170
187
227
221
218
227
221
218
227
221
218
254
242
150
254
242
150
254
242
150
1
181
168
1
181
168
1
181
168
0
1
38
0
0
0
128
10
170
187
228
209
254
228
209
254
228
209
254
254
104
78
254
104
78
254
104
78
2
107
189
2
107
189
2
107
189
0
1
38
0
0
0
128
10
170
187
227
221
218
227
221
218
227
221
218
253
212
124
253
212
124
253
212
124
3
43
154
3
43
154
3
43
154
0
1
38
0
0
0
128
10
170
187
228
87
236
228
87
236
228
87
236
253
132
219
253
132
219
253
132
219
3
239
195
3
239
195
3
239
195
0
1
38
0
0
0
128
10
170
187
227
99
200
227
99
200
227
99
200
253
208
171
253
208
171
253
208
171
4
178
20
4
178
20
4
178
20
0
1
38
0
0
0
128
10
170
187
226
111
164
226
111
164
226
111
164
254
142
238
254
142
238
254
142
238
5
108
13
5
108
13
5
108
13
0
1
38
0
0
0
128
10
170
187
226
111
164
226
111
164
226
111
164
255
74
83
255
74
83
255
74
83
6
23
20
6
23
20
6
23
20
0
1
38
0
0
0
128
10
170
187
228
87
236
228
87
236
228
87
236
255
205
117
255
205
117
255
205
117
6
172
212
6
172
212
6
172
212
0
1
38
0
0
0
128
10
170
187
225
1
110
225
1
110
225
1
110
0
15
188
0
15
188
0
15
188
7
39
145
7
39
145
7
39
145
0
1
38
0
0
0
128
10
170
187
225
245
146
225
245
146
225
245
146
255
242
166
255
242
166
255
242
166
7
130
108
7
130
108
7
130
108
0
1
38
0
0
0
128
10
170
187
226
233
182
226
233
182
226
233
182
255
121
137
255
121
137
255
121
137
7
185
182
7
185
182
7
185
182
0
1
38
0
0
0
128
10
170
187
225
123
128
225
123
128
225
123
128
254
234
245
254
234
245
254
234
245
7
203
14
7
203
14
7
203
14
0
1
38
0
0
0
128
10
170
187
225
1
110
225
1
110
225
1
110
254
123
219
254
123
219
254
123
219
7
181
146
7
181
146
7
181
146
0
1
38
0
0
0
128
10
170
187
226
111
164
226
111
164
226
111
164
254
77
32
254
77
32
254
77
32
7
121
220
7
121
220
7
121
220
0
1
38
0
0
0
128
10
170
187
226
233
182
226
233
182
226
233
182
254
135
199
254
135
199
254
135
199
7
25
249
7
25
249
7
25
249
0
1
38
0
0
0
128
10
170
187
227
99
200
227
99
200
227
99
200
254
243
16
254
243
16
254
243
16
6
153
73
6
153
73
6
153
73
0
1
38
0
0
0
128
10
170
187
228
87
236
228
87
236
228
87
236
255
29
6
255
29
6
255
29
6
5
252
76
5
252
76
5
252
76
0
1
38
0
0
0
128
10
170
187
227
99
200
227
99
200
227
99
200
255
47
37
255
47
37
255
47
37
5
72
98
5
72
98
5
72
98
0
1
38
0
0
0
128
10
170
187
226
233
182
226
233
182
226
233
182
255
179
59
255
179
59
255
179
59
4
131
129
4
131
129
4
131
129
0
1
38
0
0
0
128
10
170
187
229
76
16
229
76
16
229
76
16
0
129
56
0
129
56
0
129
56
3
179
233
3
179
233
3
179
233
0
1
38
0
0
0
128
10
170
187
226
233
182
226
233
182
226
233
182
1
0
137
1
0
137
1
0
137
2
223
218
2
223
218
2
223
218
0
1
38
0
0
0
128
10
170
187
226
233
182
226
233
182
226
233
182
1
65
221
1
65
221
1
65
221
2
13
71
2
13
71
2
13
71
0
1
38
0
0
0
128
10
170
187
228
87
236
228
87
236
228
87
236
1
159
83
1
159
83
1
159
83
1
65
159
1
65
159
1
65
159
0
1
38
0
0
0
128
10
170
187
230
64
52
230
64
52
230
64
52
1
216
18
1
216
18
1
216
18
0
129
150
0
129
150
0
129
150
0
1
38
0
0
0
128
10
170
187
229
198
34
229
198
34
229
198
34
1
124
10
1
124
10
1
124
10
255
208
252
255
208
252
255
208
252
0
1
38
0
0
0
128
10
170
187
232
40
124
232
40
124
232
40
124
0
200
192
0
200
192
0
200
192
255
50
172
255
50
172
255
50
172
0
1
38
0
0
0
128
10
170
187
231
174
106
231
174
106
231
174
106
0
138
73
0
138
73
0
138
73
254
168
126
254
168
126
254
168
126
0
1
38
0
0
0
128
10
170
187
235
4
232
235
4
232
235
4
232
1
25
208
1
25
208
1
25
208
254
51
78
254
51
78
254
51
78
0
1
38
0
0
0
128
10
170
187
236
237
48
236
237
48
236
237
48
1
250
103
1
250
103
1
250
103
253
211
14
253
211
14
253
211
14
0
1
38
0
0
0
128
10
170
187
235
126
250
235
126
250
235
126
250
2
199
112
2
199
112
2
199
112
253
134
235
253
134
235
253
134
235
0
1
38
0
0
0
128
10
170
187
235
4
232
235
4
232
235
4
232
3
231
115
3
231
115
3
231
115
253
77
111
253
77
111
253
77
111
0
1
38
0
0
0
128
10
170
187
234
138
214
234
138
214
234
138
214
5
157
48
5
157
48
5
157
48
253
36
183
253
36
183
253
36
183
0
1
38
0
0
0
128
10
170
187
234
16
196
234
16
196
234
16
196
7
8
15
7
8
15
7
8
15
253
10
163
253
10
163
253
10
163
0
1
38
0
0
0
128
10
170
187
233
28
160
233
28
160
233
28
160
7
26
46
7
26
46
7
26
46
252
253
9
252
253
9
252
253
9
0
1
38
0
0
0
128
10
170
187
235
4
232
235
4
232
235
4
232
5
250
166
5
250
166
5
250
166
252
249
229
252
249
229
252
249
229
0
1
38
0
0
0
128
10
170
187
236
115
30
236
115
30
236
115
30
4
123
192
4
123
192
4
123
192
252
255
124
252
255
124
252
255
124
0
1
38
0
0
0
128
10
170
187
228
209
254
228
209
254
228
209
254
2
220
108
2
220
108
2
220
108
253
12
114
253
12
114
253
12
114
0
1
38
0
0
0
128
10
170
187
227
99
200
227
99
200
227
99
200
1
4
90
1
4
90
1
4
90
253
31
215
253
31
215
253
31
215
0
1
38
0
0
0
128
10
170
187
224
135
92
224
135
92
224
135
92
255
116
74
255
116
74
255
116
74
253
57
38
253
57
38
253
57
38
0
1
38
0
0
0
128
10
170
187
225
1
110
225
1
110
225
1
110
254
161
12
254
161
12
254
161
12
253
88
54
253
88
54
253
88
54
0
1
38
0
0
0
128
10
170
187
225
123
128
225
123
128
225
123
128
253
176
185
253
176
185
253
176
185
253
125
42
253
125
42
253
125
42
0
1
38
0
0
0
128
10
170
187
225
1
110
225
1
110
225
1
110
251
185
46
251
185
46
251
185
46
253
168
91
253
168
91
253
168
91
0
1
38
0
0
0
128
10
170
187
223
25
38
223
25
38
223
25
38
249
111
38
249
111
38
249
111
38
253
218
62
253
218
62
253
218
62
0
1
38
0
0
0
128
10
170
187
223
147
56
223
147
56
223
147
56
247
244
17
247
244
17
247
244
17
254
19
91
254
19
91
254
19
91
0
1
38
0
0
0
128
10
170
187
223
25
38
223
25
38
223
25
38
247
69
16
247
69
16
247
69
16
254
84
57
254
84
57
254
84
57
0
1
38
0
0
0
128
10
170
187
224
135
92
224
135
92
224
135
92
246
249
63
246
249
63
246
249
63
254
157
89
254
157
89
254
157
89
0
1
38
0
0
0
128
10
170
187
224
135
92
224
135
92
224
135
92
247
125
84
247
125
84
247
125
84
254
239
46
254
239
46
254
239
46
0
1
38
0
1
91
160
10
170
187
223
25
38
223
25
38
223
25
38
249
60
33
249
60
33
249
60
33
255
74
19
255
74
19
255
74
19
0
1
38
0
1
91
128
10
170
187
223
147
56
223
147
56
223
147
56
251
121
195
251
121
195
251
121
195
255
174
62
255
174
62
255
174
62
0
1
38
0
1
91
128
10
170
187
225
1
110
225
1
110
225
1
110
253
62
194
253
62
194
253
62
194
0
27
169
0
27
169
0
27
169
0
1
38
0
1
91
128
10
170
187
222
159
20
222
159
20
222
159
20
254
70
115
254
70
115
254
70
115
0
145
242
0
145
242
0
145
242
0
1
38
0
1
91
128
10
170
187
221
170
240
221
170
240
221
170
240
254
201
27
254
201
27
254
201
27
1
16
59
1
16
59
1
16
59
0
1
38
0
1
91
128
10
170
187
215
120
6
215
120
6
215
120
6
255
67
167
255
67
167
255
67
167
1
149
8
1
149
8
1
149
8
0
1
38
0
1
91
128
10
170
187
210
179
82
210
179
82
210
179
82
255
242
166
255
242
166
255
242
166
2
30
26
2
30
26
2
30
26
0
1
38
0
1
91
128
10
170
187
204
250
122
204
250
122
204
250
122
0
52
238
0
52
238
0
52
238
2
168
95
2
168
95
2
168
95
0
1
38
0
1
91
128
10
170
187
216
108
42
216
108
42
216
108
42
255
8
133
255
8
133
255
8
133
3
47
241
3
47
241
3
47
241
0
1
38
0
1
91
128
10
170
187
240
189
192
240
189
192
240
189
192
252
9
74
252
9
74
252
9
74
3
176
37
3
176
37
3
176
37
0
1
38
0
1
91
128
10
170
187
22
105
78
22
105
78
22
105
78
247
212
29
247
212
29
247
212
29
4
35
183
4
35
183
4
35
183
0
1
38
0
1
91
128
10
170
187
68
170
32
68
170
32
68
170
32
244
92
62
244
92
62
244
92
62
4
133
8
4
133
8
4
133
8
0
1
38
0
1
91
128
10
170
187
89
165
56
89
165
56
89
165
56
245
168
31
245
168
31
245
168
31
4
206
107
4
206
107
4
206
107
0
1
38
0
1
91
128
10
170
187
72
0
158
72
0
158
72
0
158
0
254
40
0
254
40
0
254
40
4
250
129
4
250
129
4
250
129
0
1
38
0
1
91
128
10
170
187
15
188
82
15
188
82
15
188
82
25
138
100
25
138
100
25
138
100
5
4
146
5
4
146
5
4
146
0
1
38
0
1
91
128
10
170
187
230
64
52
230
64
52
230
64
52
60
153
108
60
153
108
60
153
108
4
232
232
4
232
232
4
232
232
0
1
38
0
1
91
128
10
170
187
213
21
172
213
21
172
213
21
172
94
252
201
94
252
201
94
252
201
4
165
24
4
165
24
4
165
24
0
1
38
0
1
91
128
10
170
187
212
155
154
212
155
154
212
155
154
111
44
250
111
44
250
111
44
250
4
56
55
4
56
55
4
56
55
0
1
38
0
1
91
128
10
170
187
218
206
132
218
206
132
218
206
132
95
231
222
95
231
222
95
231
222
3
163
2
3
163
2
3
163
2
0
1
38
0
1
91
128
10
170
187
219
72
150
219
72
150
219
72
150
51
199
30
51
199
30
51
199
30
2
231
235
2
231
235
2
231
235
0
1
38
0
1
91
128
10
170
187
219
194
168
219
194
168
219
194
168
251
21
38
251
21
38
251
21
38
2
11
10
2
11
10
2
11
10
0
1
38
0
1
91
128
10
170
187
219
194
168
219
194
168
219
194
168
198
130
108
198
130
108
198
130
108
1
18
10
1
18
10
1
18
10
0
1
38
0
1
91
128
10
170
187
219
72
150
219
72
150
219
72
150
161
154
217
161
154
217
161
154
217
0
4
9
0
4
9
0
4
9
0
1
38
0
1
91
128
10
170
187
219
72
150
219
72
150
219
72
150
149
108
208
149
108
208
149
108
208
254
233
112
254
233
112
254
233
112
0
1
38
0
1
91
128
10
170
187
218
84
114
218
84
114
218
84
114
165
23
3
165
23
3
165
23
3
253
203
228
253
203
228
253
203
228
0
1
38
0
1
91
128
10
170
187
216
230
60
216
230
60
216
230
60
198
225
202
198
225
202
198
225
202
252
182
52
252
182
52
252
182
52
0
1
38
0
1
91
128
10
170
187
218
84
114
218
84
114
218
84
114
232
84
213
232
84
213
232
84
213
251
180
99
251
180
99
251
180
99
0
1
38
0
1
91
128
10
170
187
217
96
78
217
96
78
217
96
78
252
104
46
252
104
46
252
104
46
250
211
173
250
211
173
250
211
173
0
1
38
0
1
91
128
10
170
187
219
72
150
219
72
150
219
72
150
2
156
135
2
156
135
2
156
135
250
34
138
250
34
138
250
34
138
0
3
48
0
1
91
192
10
170
187
218
206
132
218
206
132
218
206
132
1
152
44
1
152
44
1
152
44
249
176
132
249
176
132
249
176
132
0
3
48
0
1
91
128
10
170
187
217
96
78
217
96
78
217
96
78
255
137
68
255
137
68
255
137
68
249
141
195
249
141
195
249
141
195
0
3
48
0
1
91
128
10
170
187
216
230
60
216
230
60
216
230
60
254
211
30
254
211
30
254
211
30
249
202
72
249
202
72
249
202
72
0
3
48
0
1
91
128
10
170
187
218
206
132
218
206
132
218
206
132
255
25
54
255
25
54
255
25
54
250
116
158
250
116
158
250
116
158
0
3
48
0
1
91
128
10
170
187
217
96
78
217
96
78
217
96
78
255
127
187
255
127
187
255
127
187
251
152
55
251
152
55
251
152
55
0
3
48
0
1
91
128
10
170
187
217
218
96
217
218
96
217
218
96
255
161
150
255
161
150
255
161
150
253
59
103
253
59
103
253
59
103
0
3
48
0
1
91
128
10
170
187
217
96
78
217
96
78
217
96
78
255
180
169
255
180
169
255
180
169
255
93
83
255
93
83
255
93
83
0
3
48
0
1
91
128
10
170
187
216
108
42
216
108
42
216
108
42
255
231
53
255
231
53
255
231
53
1
244
42
1
244
42
1
244
42
0
3
48
0
1
91
128
10
170
187
217
218
96
217
218
96
217
218
96
255
213
21
255
213
21
255
213
21
4
235
236
4
235
236
4
235
236
0
3
48
0
1
91
128
10
170
187
218
84
114
218
84
114
218
84
114
255
59
139
255
59
139
255
59
139
8
38
52
8
38
52
8
38
52
0
3
48
0
1
91
128
10
170
187
217
96
78
217
96
78
217
96
78
254
147
56
254
147
56
254
147
56
11
123
50
11
123
50
11
123
50
0
3
48
0
1
91
128
10
170
187
218
206
132
218
206
132
218
206
132
254
131
2
254
131
2
254
131
2
14
187
216
14
187
216
14
187
216
0
3
48
0
1
91
128
10
170
187
219
72
150
219
72
150
219
72
150
255
12
86
255
12
86
255
12
86
17
181
50
17
181
50
17
181
50
0
3
48
0
1
91
128
10
170
187
216
230
60
216
230
60
216
230
60
255
160
161
255
160
161
255
160
161
20
52
104
20
52
104
20
52
104
0
3
48
0
1
91
128
10
170
187
218
84
114
218
84
114
218
84
114
255
255
134
255
255
134
255
255
134
22
11
9
22
11
9
22
11
9
0
3
48
0
1
91
128
10
170
187
220
60
186
220
60
186
220
60
186
0
109
172
0
109
172
0
109
172
23
18
251
23
18
251
23
18
251
0
3
48
0
1
91
128
10
170
187
218
84
114
218
84
114
218
84
114
0
253
52
0
253
52
0
253
52
23
49
150
23
49
150
23
49
150
0
3
48
0
1
91
128
10
170
187
217
218
96
217
218
96
217
218
96
1
74
237
1
74
237
1
74
237
22
89
141
22
89
141
22
89
141
0
3
48
0
1
91
128
10
170
187
218
206
132
218
206
132
218
206
132
1
42
6
1
42
6
1
42
6
20
139
117
20
139
117
20
139
117
0
3
48
0
1
91
128
10
170
187
217
96
78
217
96
78
217
96
78
0
236
10
0
236
10
0
236
10
17
213
31
17
213
31
17
213
31
0
3
48
0
1
91
128
10
170
187
216
108
42
216
108
42
216
108
42
0
182
39
0
182
39
0
182
39
14
79
233
14
79
233
14
79
233
0
3
48
0
1
91
128
10
170
187
218
84
114
218
84
114
218
84
114
0
93
118
0
93
118
0
93
118
10
30
138
10
30
138
10
30
138
0
3
48
0
1
91
128
10
170
187
216
108
42
216
108
42
216
108
42
255
251
59
255
251
59
255
251
59
5
106
178
5
106
178
5
106
178
0
3
48
0
1
91
128
10
170
187
215
242
24
215
242
24
215
242
24
255
187
208
255
187
208
255
187
208
0
98
204
0
98
204
0
98
204
0
3
48
0
1
91
128
10
170
187
216
108
42
216
108
42
216
108
42
255
110
144
255
110
144
255
110
144
251
56
2
251
56
2
251
56
2
0
3
48
0
1
91
128
10
170
187
215
242
24
215
242
24
215
242
24
254
248
79
254
248
79
254
248
79
246
28
138
246
28
138
246
28
138
0
3
48
0
1
91
128
10
170
187
214
253
244
214
253
244
214
253
244
254
151
131
254
151
131
254
151
131
241
65
253
241
65
253
241
65
253
0
3
48
0
1
91
128
10
170
187
215
242
24
215
242
24
215
242
24
254
94
74
254
94
74
254
94
74
236
215
155
236
215
155
236
215
155
0
3
48
0
1
91
128
10
170
187
213
21
172
213
21
172
213
21
172
254
27
137
254
27
137
254
27
137
233
8
70
233
8
70
233
8
70
0
3
48
0
1
91
128
10
170
187
213
21
172
213
21
172
213
21
172
253
218
175
253
218
175
253
218
175
229
248
58
229
248
58
229
248
58
0
3
48
0
1
91
128
10
170
187
213
143
190
213
143
190
213
143
190
253
201
11
253
201
11
253
201
11
227
194
177
227
194
177
227
194
177
0
3
48
0
1
91
128
10
170
187
212
155
154
212
155
154
212
155
154
253
189
30
253
189
30
253
189
30
226
119
168
226
119
168
226
119
168
0
3
48
0
1
91
128
10
170
187
212
33
136
212
33
136
212
33
136
253
127
156
253
127
156
253
127
156
226
26
78
226
26
78
226
26
78
0
3
48
0
1
91
128
10
170
187
213
21
172
213
21
172
213
21
172
253
59
230
253
59
230
253
59
230
226
160
96
226
160
96
226
160
96
0
3
48
0
1
91
128
10
170
187
211
45
100
211
45
100
211
45
100
253
39
100
253
39
100
253
39
100
227
242
205
227
242
205
227
242
205
0
3
48
0
1
91
128
10
170
187
212
33
136
212
33
136
212
33
136
253
39
101
253
39
101
253
39
101
229
239
155
229
239
155
229
239
155
0
3
48
0
1
91
128
10
170
187
213
143
190
213
143
190
213
143
190
253
34
38
253
34
38
253
34
38
232
108
246
232
108
246
232
108
246
0
3
48
0
1
91
128
10
170
187
214
131
226
214
131
226
214
131
226
253
57
9
253
57
9
253
57
9
235
61
4
235
61
4
235
61
4
0
3
48
0
1
91
128
10
170
187
216
230
60
216
230
60
216
230
60
253
137
159
253
137
159
253
137
159
238
49
241
238
49
241
238
49
241
0
3
48
0
1
91
128
10
170
187
220
182
204
220
182
204
220
182
204
254
22
74
254
22
74
254
22
74
241
33
186
241
33
186
241
33
186
0
3
48
0
1
91
128
10
170
187
221
170
240
221
170
240
221
170
240
254
243
16
254
243
16
254
243
16
243
233
44
243
233
44
243
233
44
0
3
48
0
1
91
128
10
170
187
223
147
56
223
147
56
223
147
56
0
76
74
0
76
74
0
76
74
246
109
215
246
109
215
246
109
215
0
3
48
0
1
91
128
10
170
187
225
245
146
225
245
146
225
245
146
2
60
52
2
60
52
2
60
52
248
158
192
248
158
192
248
158
192
0
3
48
0
1
91
128
10
170
187
224
135
92
224
135
92
224
135
92
4
167
36
4
167
36
4
167
36
250
115
246
250
115
246
250
115
246
0
3
48
0
1
91
128
10
170
187
225
123
128
225
123
128
225
123
128
7
53
92
7
53
92
7
53
92
251
237
69
251
237
69
251
237
69
0
3
48
0
1
91
128
10
170
187
227
99
200
227
99
200
227
99
200
9
105
117
9
105
117
9
105
117
253
16
88
253
16
88
253
16
88
0
3
48
0
1
91
128
10
170
187
225
123
128
225
123
128
225
123
128
10
204
180
10
204
180
10
204
180
253
230
161
253
230
161
253
230
161
0
3
48
0
1
91
128
10
170
187
225
245
146
225
245
146
225
245
146
11
20
181
11
20
181
11
20
181
254
123
114
254
123
114
254
123
114
0
3
48
0
1
91
128
10
170
187
226
233
182
226
233
182
226
233
182
10
71
48
10
71
48
10
71
48
254
218
86
254
218
86
254
218
86
0
3
48
0
1
91
128
10
170
187
225
123
128
225
123
128
225
123
128
8
184
141
8
184
141
8
184
141
255
13
254
255
13
254
255
13
254
0
3
48
0
1
91
128
10
170
187
226
233
182
226
233
182
226
233
182
6
200
164
6
200
164
6
200
164
255
31
148
255
31
148
255
31
148
0
3
48
0
1
91
128
10
170
187
227
99
200
227
99
200
227
99
200
4
202
109
4
202
109
4
202
109
255
22
148
255
22
148
255
22
148
0
3
48
0
1
91
128
10
170
187
225
123
128
225
123
128
225
123
128
3
23
19
3
23
19
3
23
19
254
248
234
254
248
234
254
248
234
0
3
48
0
1
91
128
10
170
187
226
111
164
226
111
164
226
111
164
1
230
218
1
230
218
1
230
218
254
203
75
254
203
75
254
203
75
0
3
48
0
1
91
128
10
170
187
225
245
146
225
245
146
225
245
146
1
38
53
1
38
53
1
38
53
254
145
171
254
145
171
254
145
171
0
3
48
0
1
91
128
10
170
187
225
245
146
225
245
146
225
245
146
0
158
80
0
158
80
0
158
80
254
79
167
254
79
167
254
79
167
0
3
48
0
1
91
128
10
170
187
226
111
164
226
111
164
226
111
164
0
58
167
0
58
167
0
58
167
254
8
235
254
8
235
254
8
235
0
3
48
0
1
91
128
10
170
187
228
87
236
228
87
236
228
87
236
255
254
24
255
254
24
255
254
24
253
193
109
253
193
109
253
193
109
0
3
48
0
1
91
128
10
170
187
226
111
164
226
111
164
226
111
164
255
220
183
255
220
183
255
220
183
253
125
147
253
125
147
253
125
147
0
3
48
0
1
91
128
10
170
187
225
245
146
225
245
146
225
245
146
255
226
111
255
226
111
255
226
111
253
66
57
253
66
57
253
66
57
0
3
48
0
1
91
128
10
170
187
225
245
146
225
245
146
225
245
146
0
35
196
0
35
196
0
35
196
253
20
147
253
20
147
253
20
147
0
3
48
0
1
91
128
10
170
187
225
245
146
225
245
146
225
245
146
0
111
26
0
111
26
0
111
26
252
249
252
252
249
252
252
249
252
0
3
48
0
1
91
128
10
170
187
225
245
146
225
245
146
225
245
146
0
130
45
0
130
45
0
130
45
252
247
170
252
247
170
252
247
170
0
3
48
0
1
91
128
10
170
187
225
245
146
225
245
146
225
245
146
0
92
129
0
92
129
0
92
129
253
18
91
253
18
91
253
18
91
0
3
48
0
1
91
128
10
170
187
224
13
74
224
13
74
224
13
74
0
26
180
0
26
180
0
26
180
253
77
253
253
77
253
253
77
253
0
3
48
0
1
91
128
10
170
187
224
13
74
224
13
74
224
13
74
255
194
247
255
194
247
255
194
247
253
173
78
253
173
78
253
173
78
0
3
48
0
1
91
128
10
170
187
224
135
92
224
135
92
224
135
92
255
71
241
255
71
241
255
71
241
254
49
156
254
49
156
254
49
156
0
3
48
0
1
91
128
10
170
187
223
25
38
223
25
38
223
25
38
254
175
91
254
175
91
254
175
91
254
218
129
254
218
129
254
218
129
0
3
48
0
1
91
128
10
170
187
223
25
38
223
25
38
223
25
38
254
42
81
254
42
81
254
42
81
255
165
203
255
165
203
255
165
203
0
3
48
0
1
91
128
10
170
187
224
135
92
224
135
92
224
135
92
253
231
144
253
231
144
253
231
144
0
143
123
0
143
123
0
143
123
0
3
48
0
1
91
128
10
170
187
223
25
38
223
25
38
223
25
38
253
225
214
253
225
214
253
225
214
1
145
232
1
145
232
1
145
232
0
3
48
0
1
91
128
10
170
187
223
25
38
223
25
38
223
25
38
253
239
170
253
239
170
253
239
170
2
165
244
2
165
244
2
165
244
0
3
48
0
1
91
128
10
170
187
224
135
92
224
135
92
224
135
92
253
253
3
253
253
3
253
253
3
3
195
110
3
195
110
3
195
110
0
3
48
0
1
91
128
10
170
187
223
147
56
223
147
56
223
147
56
254
48
253
254
48
253
254
48
253
4
225
114
4
225
114
4
225
114
0
3
48
0
1
91
128
10
170
187
224
13
74
224
13
74
224
13
74
254
169
39
254
169
39
254
169
39
5
246
218
5
246
218
5
246
218
0
3
48
0
1
91
128
10
170
187
224
135
92
224
135
92
224
135
92
255
59
138
255
59
138
255
59
138
6
250
180
6
250
180
6
250
180
0
3
48
0
1
91
128
10
170
187
222
37
2
222
37
2
222
37
2
255
174
239
255
174
239
255
174
239
7
228
170
7
228
170
7
228
170
0
3
48
0
1
91
128
10
170
187
222
37
2
222
37
2
222
37
2
255
239
202
255
239
202
255
239
202
8
173
88
8
173
88
8
173
88
0
3
48
0
1
91
128
10
170
187
223
147
56
223
147
56
223
147
56
0
16
55
0
16
55
0
16
55
9
78
168
9
78
168
9
78
168
0
3
48
0
1
91
128
10
170
187
223
25
38
223
25
38
223
25
38
0
16
176
0
16
176
0
16
176
9
195
254
9
195
254
9
195
254
0
3
48
0
1
91
128
10
170
187
223
25
38
223
25
38
223
25
38
255
196
223
255
196
223
255
196
223
10
10
101
10
10
101
10
10
101
0
3
48
0
1
91
128
10
170
187
224
135
92
224
135
92
224
135
92
255
54
199
255
54
199
255
54
199
10
32
166
10
32
166
10
32
166
0
3
48
0
1
91
128
10
170
187
223
25
38
223
25
38
223
25
38
254
211
153
254
211
153
254
211
153
10
7
64
10
7
64
10
7
64
0
3
48
0
1
91
128
10
170
187
222
159
20
222
159
20
222
159
20
254
242
150
254
242
150
254
242
150
9
192
94
9
192
94
9
192
94
0
3
48
0
1
91
128
10
170
187
224
135
92
224
135
92
224
135
92
255
103
105
255
103
105
255
103
105
9
79
174
9
79
174
9
79
174
0
3
48
0
1
91
128
10
170
187
223
25
38
223
25
38
223
25
38
255
210
58
255
210
58
255
210
58
8
186
52
8
186
52
8
186
52
0
3
48
0
1
91
128
10
170
187
222
159
20
222
159
20
222
159
20
0
38
38
0
38
38
0
38
38
8
5
250
8
5
250
8
5
250
0
3
48
0
1
91
128
10
170
187
224
135
92
224
135
92
224
135
92
0
117
77
0
117
77
0
117
77
7
57
204
7
57
204
7
57
204
0
3
48
0
1
91
128
10
170
187
223
147
56
223
147
56
223
147
56
0
151
39
0
151
39
0
151
39
6
92
213
6
92
213
6
92
213
0
3
48
0
1
91
128
10
170
187
224
135
92
224
135
92
224
135
92
0
95
216
0
95
216
0
95
216
5
118
73
5
118
73
5
118
73
0
3
48
0
1
91
128
10
170
187
224
135
92
224
135
92
224
135
92
255
240
190
255
240
190
255
240
190
4
141
12
4
141
12
4
141
12
0
3
48
0
1
91
128
10
170
187
223
25
38
223
25
38
223
25
38
255
173
130
255
173
130
255
173
130
3
167
96
3
167
96
3
167
96
0
3
48
0
1
91
128
10
170
187
223
147
56
223
147
56
223
147
56
255
220
183
255
220
183
255
220
183
2
202
169
2
202
169
2
202
169
0
3
48
0
1
91
128
10
170
187
225
245
146
225
245
146
225
245
146
0
84
225
0
84
225
0
84
225
1
251
72
1
251
72
1
251
72
0
3
48
0
1
91
128
10
170
187
227
99
200
227
99
200
227
99
200
0
165
241
0
165
241
0
165
241
1
60
122
1
60
122
1
60
122
0
3
48
0
1
91
128
10
170
187
228
209
254
228
209
254
228
209
254
0
172
36
0
172
36
0
172
36
0
144
108
0
144
108
0
144
108
0
3
48
0
1
91
128
10
170
187
230
186
70
230
186
70
230
186
70
0
193
31
0
193
31
0
193
31
255
248
65
255
248
65
255
248
65
0
3
48
0
1
91
128
10
170
187
230
186
70
230
186
70
230
186
70
1
74
237
1
74
237
1
74
237
255
116
65
255
116
65
255
116
65
0
3
48
0
1
91
128
10
170
187
232
40
124
232
40
124
232
40
124
2
89
75
2
89
75
2
89
75
255
4
2
255
4
2
255
4
2
0
3
48
0
1
91
128
10
170
187
234
138
214
234
138
214
234
138
214
3
163
189
3
163
189
3
163
189
254
166
157
254
166
157
254
166
157
0
3
48
0
0
244
160
10
170
187
233
28
160
233
28
160
233
28
160
4
233
108
4
233
108
4
233
108
254
90
226
254
90
226
254
90
226
0
3
48
0
0
244
128
10
170
187
233
28
160
233
28
160
233
28
160
6
45
49
6
45
49
6
45
49
254
31
119
254
31
119
254
31
119
0
3
48
0
0
244
128
10
170
187
233
150
178
233
150
178
233
150
178
7
84
90
7
84
90
7
84
90
253
243
2
253
243
2
253
243
2
0
3
48
0
0
244
128
10
170
187
232
40
124
232
40
124
232
40
124
7
230
190
7
230
190
7
230
190
253
212
57
253
212
57
253
212
57
0
3
48
0
0
244
128
10
170
187
229
198
34
229
198
34
229
198
34
7
111
14
7
111
14
7
111
14
253
193
237
253
193
237
253
193
237
0
3
48
0
0
244
128
10
170
187
232
40
124
232
40
124
232
40
124
6
5
35
6
5
35
6
5
35
253
187
6
253
187
6
253
187
6
0
3
48
0
0
244
128
10
170
187
235
4
232
235
4
232
235
4
232
4
59
217
4
59
217
4
59
217
253
190
137
253
190
137
253
190
137
0
3
48
0
0
244
128
10
170
187
230
186
70
230
186
70
230
186
70
2
99
200
2
99
200
2
99
200
253
203
133
253
203
133
253
203
133
0
3
48
0
0
244
128
10
170
187
229
76
16
229
76
16
229
76
16
0
129
57
0
129
57
0
129
57
253
225
20
253
225
20
253
225
20
0
3
48
0
0
244
128
10
170
187
226
233
182
226
233
182
226
233
182
255
35
179
255
35
179
255
35
179
253
254
87
253
254
87
253
254
87
0
3
48
0
0
244
128
10
170
187
223
147
56
223
147
56
223
147
56
254
236
99
254
236
99
254
236
99
254
34
127
254
34
127
254
34
127
0
3
48
0
0
244
128
10
170
187
224
13
74
224
13
74
224
13
74
255
22
90
255
22
90
255
22
90
254
76
206
254
76
206
254
76
206
0
3
48
0
0
244
128
10
170
187
222
37
2
222
37
2
222
37
2
254
88
24
254
88
24
254
88
24
254
124
181
254
124
181
254
124
181
0
3
48
0
0
244
128
10
170
187
221
170
240
221
170
240
221
170
240
252
211
120
252
211
120
252
211
120
254
177
221
254
177
221
254
177
221
0
3
48
0
0
244
128
10
170
187
222
159
20
222
159
20
222
159
20
251
75
253
251
75
253
251
75
253
254
236
62
254
236
62
254
236
62
0
3
48
0
0
244
128
10
170
187
221
48
222
221
48
222
221
48
222
249
153
151
249
153
151
249
153
151
255
44
34
255
44
34
255
44
34
0
3
48
0
0
244
128
10
170
187
219
194
168
219
194
168
219
194
168
247
137
187
247
137
187
247
137
187
255
114
44
255
114
44
255
114
44
0
3
48
0
0
244
128
10
170
187
221
48
222
221
48
222
221
48
222
246
57
20
246
57
20
246
57
20
255
191
66
255
191
66
255
191
66
0
3
48
0
0
244
128
10
170
187
219
194
168
219
194
168
219
194
168
246
197
191
246
197
191
246
197
191
0
20
121
0
20
121
0
20
121
0
3
48
0
0
244
128
10
170
187
219
194
168
219
194
168
219
194
168
248
135
226
248
135
226
248
135
226
0
114
228
0
114
228
0
114
228
0
3
48
0
0
244
128
10
170
187
222
37
2
222
37
2
222
37
2
250
63
135
250
63
135
250
63
135
0
219
96
0
219
96
0
219
96
0
3
48
0
0
244
128
10
170
187
218
206
132
218
206
132
218
206
132
251
157
12
251
157
12
251
157
12
1
78
101
1
78
101
1
78
101
0
3
48
0
0
244
128
10
170
187
216
230
60
216
230
60
216
230
60
252
183
208
252
183
208
252
183
208
1
203
192
1
203
192
1
203
192
0
3
48
0
0
244
128
10
170
187
211
167
118
211
167
118
211
167
118
253
132
97
253
132
97
253
132
97
2
82
116
2
82
116
2
82
116
0
3
48
0
0
244
128
10
170
187
206
104
176
206
104
176
206
104
176
253
252
16
253
252
16
253
252
16
2
224
140
2
224
140
2
224
140
0
3
48
0
0
244
128
10
170
187
201
163
252
201
163
252
201
163
252
253
255
103
253
255
103
253
255
103
3
115
25
3
115
25
3
115
25
0
3
48
0
0
244
128
10
170
187
217
96
78
217
96
78
217
96
78
253
23
46
253
23
46
253
23
46
4
6
46
4
6
46
4
6
46
0
3
48
0
0
244
128
10
170
187
247
106
188
247
106
188
247
106
188
250
176
138
250
176
138
250
176
138
4
149
4
4
149
4
4
149
4
0
3
48
0
0
244
128
10
170
187
39
25
196
39
25
196
39
25
196
247
2
79
247
2
79
247
2
79
5
26
34
5
26
34
5
26
34
0
3
48
0
0
244
128
10
170
187
84
102
114
84
102
114
84
102
114
244
76
8
244
76
8
244
76
8
5
143
151
5
143
151
5
143
151
0
3
48
0
0
244
128
10
170
187
81
15
244
81
15
244
81
15
244
247
156
84
247
156
84
247
156
84
5
239
71
5
239
71
5
239
71
0
3
48
0
0
244
128
10
170
187
4
196
180
4
196
180
4
196
180
7
35
61
7
35
61
7
35
61
6
51
52
6
51
52
6
51
52
0
3
48
0
0
244
128
10
170
187
208
80
248
208
80
248
208
80
248
37
95
67
37
95
67
37
95
67
6
85
205
6
85
205
6
85
205
0
3
48
0
0
244
128
10
170
187
213
143
190
213
143
190
213
143
190
75
60
104
75
60
104
75
60
104
6
82
70
6
82
70
6
82
70
0
3
48
0
0
244
128
10
170
187
218
84
114
218
84
114
218
84
114
101
145
116
101
145
116
101
145
116
6
36
214
6
36
214
6
36
214
0
3
48
0
0
244
128
10
170
187
218
84
114
218
84
114
218
84
114
95
210
227
95
210
227
95
210
227
5
203
5
5
203
5
5
203
5
0
3
48
0
0
244
128
10
170
187
218
84
114
218
84
114
218
84
114
57
116
133
57
116
133
57
116
133
5
67
224
5
67
224
5
67
224
0
3
48
0
0
244
128
10
170
187
218
84
114
218
84
114
218
84
114
7
118
176
7
118
176
7
118
176
4
144
36
4
144
36
4
144
36
0
3
48
0
0
244
128
10
170
187
218
206
132
218
206
132
218
206
132
218
172
168
218
172
168
218
172
168
3
178
97
3
178
97
3
178
97
0
3
48
0
0
244
128
10
170
187
218
84
114
218
84
114
218
84
114
181
230
119
181
230
119
181
230
119
2
175
3
2
175
3
2
175
3
0
3
48
0
0
244
128
10
170
187
217
96
78
217
96
78
217
96
78
160
198
167
160
198
167
160
198
167
1
140
95
1
140
95
1
140
95
0
3
48
0
0
244
128
10
170
187
217
218
96
217
218
96
217
218
96
169
193
125
169
193
125
169
193
125
0
82
158
0
82
158
0
82
158
0
3
48
0
0
244
128
10
170
187
217
96
78
217
96
78
217
96
78
204
210
108
204
210
108
204
210
108
255
11
193
255
11
193
255
11
193
0
3
48
0
0
244
128
10
170
187
216
108
42
216
108
42
216
108
42
239
148
52
239
148
52
239
148
52
253
195
136
253
195
136
253
195
136
0
3
48
0
0
244
128
10
170
187
217
96
78
217
96
78
217
96
78
255
107
181
255
107
181
255
107
181
252
135
99
252
135
99
252
135
99
0
3
48
0
0
244
128
10
170
187
215
242
24
215
242
24
215
242
24
0
247
0
0
247
0
0
247
0
251
102
83
251
102
83
251
102
83
0
3
37
0
0
244
192
10
170
187
215
242
24
215
242
24
215
242
24
255
102
240
255
102
240
255
102
240
250
112
163
250
112
163
250
112
163
0
3
37
0
0
244
128
10
170
187
216
230
60
216
230
60
216
230
60
254
195
97
254
195
97
254
195
97
249
183
141
249
183
141
249
183
141
0
3
37
0
0
244
128
10
170
187
215
120
6
215
120
6
215
120
6
254
157
59
254
157
59
254
157
59
249
76
113
249
76
113
249
76
113
0
3
37
0
0
244
128
10
170
187
215
242
24
215
242
24
215
242
24
254
105
188
254
105
188
254
105
188
249
63
210
249
63
210
249
63
210
0
3
37
0
0
244
128
10
170
187
216
230
60
216
230
60
216
230
60
254
75
55
254
75
55
254
75
55
249
159
234
249
159
234
249
159
234
0
3
37
0
0
244
128
10
170
187
215
120
6
215
120
6
215
120
6
254
143
225
254
143
225
254
143
225
250
118
239
250
118
239
250
118
239
0
3
37
0
0
244
128
10
170
187
217
218
96
217
218
96
217
218
96
254
255
240
254
255
240
254
255
240
251
201
63
251
201
63
251
201
63
0
3
37
0
0
244
128
10
170
187
217
218
96
217
218
96
217
218
96
255
61
237
255
61
237
255
61
237
253
147
160
253
147
160
253
147
160
0
3
37
0
0
244
128
10
170
187
218
84
114
218
84
114
218
84
114
255
111
11
255
111
11
255
111
11
255
201
247
255
201
247
255
201
247
0
3
37
0
0
244
128
10
170
187
217
96
78
217
96
78
217
96
78
255
224
135
255
224
135
255
224
135
2
86
171
2
86
171
2
86
171
0
3
37
0
0
244
128
10
170
187
217
218
96
217
218
96
217
218
96
0
132
22
0
132
22
0
132
22
5
27
19
5
27
19
5
27
19
0
3
37
0
0
244
128
10
170
187
216
108
42
216
108
42
216
108
42
1
12
118
1
12
118
1
12
118
7
240
242
7
240
242
7
240
242
0
3
37
0
0
244
128
10
170
187
215
120
6
215
120
6
215
120
6
1
90
169
1
90
169
1
90
169
10
172
255
10
172
255
10
172
255
0
3
37
0
0
244
128
10
170
187
216
108
42
216
108
42
216
108
42
1
135
2
1
135
2
1
135
2
13
34
54
13
34
54
13
34
54
0
3
37
0
0
244
128
10
170
187
215
120
6
215
120
6
215
120
6
1
128
207
1
128
207
1
128
207
15
37
138
15
37
138
15
37
138
0
3
37
0
0
244
128
10
170
187
215
242
24
215
242
24
215
242
24
1
11
8
1
11
8
1
11
8
16
145
130
16
145
130
16
145
130
0
3
37
0
0
244
128
10
170
187
217
218
96
217
218
96
217
218
96
0
28
34
0
28
34
0
28
34
17
73
70
17
73
70
17
73
70
0
3
37
0
0
244
128
10
170
187
216
230
60
216
230
60
216
230
60
255
27
153
255
27
153
255
27
153
17
58
178
17
58
178
17
58
178
0
3
37
0
0
244
128
10
170
187
216
230
60
216
230
60
216
230
60
254
133
222
254
133
222
254
133
222
16
95
80
16
95
80
16
95
80
0
3
37
0
0
244
128
10
170
187
218
84
114
218
84
114
218
84
114
254
110
251
254
110
251
254
110
251
14
188
43
14
188
43
14
188
43
0
3
37
0
0
244
128
10
170
187
217
218
96
217
218
96
217
218
96
254
189
168
254
189
168
254
189
168
12
96
191
12
96
191
12
96
191
0
3
37
0
0
244
128
10
170
187
219
72
150
219
72
150
219
72
150
255
98
42
255
98
42
255
98
42
9
101
73
9
101
73
9
101
73
0
3
37
0
0
244
128
10
170
187
218
206
132
218
206
132
218
206
132
0
41
2
0
41
2
0
41
2
5
232
223
5
232
223
5
232
223
0
3
37
0
0
244
128
10
170
187
217
218
96
217
218
96
217
218
96
0
217
234
0
217
234
0
217
234
2
15
144
2
15
144
2
15
144
0
3
37
0
0
244
128
10
170
187
217
96
78
217
96
78
217
96
78
1
105
114
1
105
114
1
105
114
254
0
186
254
0
186
254
0
186
0
3
37
0
0
244
128
10
170
187
216
230
60
216
230
60
216
230
60
1
202
184
1
202
184
1
202
184
249
229
157
249
229
157
249
229
157
0
3
37
0
0
244
128
10
170
187
215
242
24
215
242
24
215
242
24
1
204
38
1
204
38
1
204
38
245
231
252
245
231
252
245
231
252
0
3
37
0
0
244
128
10
170
187
215
120
6
215
120
6
215
120
6
1
104
126
1
104
126
1
104
126
242
48
179
242
48
179
242
48
179
0
3
37
0
0
244
128
10
170
187
216
108
42
216
108
42
216
108
42
0
212
171
0
212
171
0
212
171
238
230
2
238
230
2
238
230
2
0
3
37
0
0
244
128
10
170
187
214
131
226
214
131
226
214
131
226
0
24
203
0
24
203
0
24
203
236
41
158
236
41
158
236
41
158
0
3
37
0
0
244
128
10
170
187
214
131
226
214
131
226
214
131
226
255
50
1
255
50
1
255
50
1
234
22
129
234
22
129
234
22
129
0
3
37
0
0
244
128
10
170
187
215
242
24
215
242
24
215
242
24
254
97
38
254
97
38
254
97
38
232
190
212
232
190
212
232
190
212
0
3
37
0
0
244
128
10
170
187
215
242
24
215
242
24
215
242
24
253
230
32
253
230
32
253
230
32
232
42
64
232
42
64
232
42
64
0
3
37
0
0
244
128
10
170
187
215
120
6
215
120
6
215
120
6
253
189
30
253
189
30
253
189
30
232
84
247
232
84
247
232
84
247
0
3
37
0
0
244
128
10
170
187
218
84
114
218
84
114
218
84
114
253
210
148
253
210
148
253
210
148
233
47
222
233
47
222
233
47
222
0
3
37
0
0
244
128
10
170
187
218
206
132
218
206
132
218
206
132
254
55
171
254
55
171
254
55
171
234
161
207
234
161
207
234
161
207
0
3
37
0
0
244
128
10
170
187
221
170
240
221
170
240
221
170
240
254
225
108
254
225
108
254
225
108
236
137
243
236
137
243
236
137
243
0
3
37
0
0
244
128
10
170
187
224
13
74
224
13
74
224
13
74
255
151
25
255
151
25
255
151
25
238
194
230
238
194
230
238
194
230
0
3
37
0
0
244
128
10
170
187
224
13
74
224
13
74
224
13
74
0
112
15
0
112
15
0
112
15
241
38
57
241
38
57
241
38
57
0
3
37
0
0
244
128
10
170
187
225
1
110
225
1
110
225
1
110
1
220
215
1
220
215
1
220
215
243
143
216
243
143
216
243
143
216
0
3
37
0
0
244
128
10
170
187
226
233
182
226
233
182
226
233
182
3
242
229
3
242
229
3
242
229
245
224
210
245
224
210
245
224
210
0
3
37
0
0
244
128
10
170
187
225
245
146
225
245
146
225
245
146
6
22
78
6
22
78
6
22
78
248
1
80
248
1
80
248
1
80
0
3
37
0
0
244
128
10
170
187
226
233
182
226
233
182
226
233
182
7
153
127
7
153
127
7
153
127
249
225
109
249
225
109
249
225
109
0
3
37
0
0
244
128
10
170
187
227
99
200
227
99
200
227
99
200
8
100
39
8
100
39
8
100
39
251
121
21
251
121
21
251
121
21
0
3
37
0
0
244
128
10
170
187
226
111
164
226
111
164
226
111
164
8
158
83
8
158
83
8
158
83
252
199
7
252
199
7
252
199
7
0
3
37
0
0
244
128
10
170
187
226
111
164
226
111
164
226
111
164
8
42
238
8
42
238
8
42
238
253
207
74
253
207
74
253
207
74
0
3
37
0
0
244
128
10
170
187
227
99
200
227
99
200
227
99
200
6
241
44
6
241
44
6
241
44
254
153
114
254
153
114
254
153
114
0
3
37
0
0
244
128
10
170
187
225
245
146
225
245
146
225
245
146
5
71
213
5
71
213
5
71
213
255
46
224
255
46
224
255
46
224
0
3
37
0
0
244
128
10
170
187
225
1
110
225
1
110
225
1
110
3
185
50
3
185
50
3
185
50
255
153
94
255
153
94
255
153
94
0
3
37
0
0
244
128
10
170
187
226
233
182
226
233
182
226
233
182
2
125
136
2
125
136
2
125
136
255
226
24
255
226
24
255
226
24
0
3
37
0
0
244
128
10
170
187
225
123
128
225
123
128
225
123
128
1
115
117
1
115
117
1
115
117
0
17
10
0
17
10
0
17
10
0
3
37
0
0
244
128
10
170
187
226
233
182
226
233
182
226
233
182
0
128
69
0
128
69
0
128
69
0
44
202
0
44
202
0
44
202
0
3
37
0
0
244
128
10
170
187
227
221
218
227
221
218
227
221
218
255
182
145
255
182
145
255
182
145
0
58
168
0
58
168
0
58
168
0
3
37
0
0
244
128
10
170
187
225
1
110
225
1
110
225
1
110
255
64
202
255
64
202
255
64
202
0
62
244
0
62
244
0
62
244
0
3
37
0
0
244
128
10
170
187
225
123
128
225
123
128
225
123
128
255
49
13
255
49
13
255
49
13
0
61
80
0
61
80
0
61
80
0
3
37
0
0
244
128
10
170
187
225
123
128
225
123
128
225
123
128
255
107
58
255
107
58
255
107
58
0
57
4
0
57
4
0
57
4
0
3
37
0
0
244
128
10
170
187
222
159
20
222
159
20
222
159
20
255
181
157
255
181
157
255
181
157
0
53
59
0
53
59
0
53
59
0
3
37
0
0
244
128
10
170
187
223
147
56
223
147
56
223
147
56
255
202
30
255
202
30
255
202
30
0
53
35
0
53
35
0
53
35
0
3
37
0
0
244
128
10
170
187
224
135
92
224
135
92
224
135
92
255
150
37
255
150
37
255
150
37
0
59
242
0
59
242
0
59
242
0
3
37
0
0
244
128
10
170
187
223
147
56
223
147
56
223
147
56
255
44
194
255
44
194
255
44
194
0
76
214
0
76
214
0
76
214
0
3
37
0
0
244
128
10
170
187
222
159
20
222
159
20
222
159
20
254
136
187
254
136
187
254
136
187
0
106
209
0
106
209
0
106
209
0
3
37
0
0
244
128
10
170
187
222
37
2
222
37
2
222
37
2
253
211
136
253
211
136
253
211
136
0
152
138
0
152
138
0
152
138
0
3
37
0
0
244
128
10
170
187
222
37
2
222
37
2
222
37
2
253
106
39
253
106
39
253
106
39
0
216
20
0
216
20
0
216
20
0
3
37
0
0
244
128
10
170
187
222
37
2
222
37
2
222
37
2
253
96
157
253
96
157
253
96
157
1
42
200
1
42
200
1
42
200
0
3
37
0
0
244
128
10
170
187
223
147
56
223
147
56
223
147
56
253
105
50
253
105
50
253
105
50
1
145
15
1
145
15
1
145
15
0
3
37
0
0
244
128
10
170
187
222
159
20
222
159
20
222
159
20
253
92
205
253
92
205
253
92
205
2
10
73
2
10
73
2
10
73
0
3
37
0
0
244
128
10
170
187
221
48
222
221
48
222
221
48
222
253
135
183
253
135
183
253
135
183
2
148
184
2
148
184
2
148
184
0
3
37
0
0
244
128
10
170
187
222
37
2
222
37
2
222
37
2
254
7
7
254
7
7
254
7
7
3
45
135
3
45
135
3
45
135
0
3
37
0
0
244
128
10
170
187
220
182
204
220
182
204
220
182
204
254
124
206
254
124
206
254
124
206
3
208
208
3
208
208
3
208
208
0
3
37
0
0
244
128
10
170
187
220
182
204
220
182
204
220
182
204
254
188
180
254
188
180
254
188
180
4
121
198
4
121
198
4
121
198
0
3
37
0
0
244
128
10
170
187
221
48
222
221
48
222
221
48
222
254
254
8
254
254
8
254
254
8
5
34
228
5
34
228
5
34
228
0
3
37
0
0
244
128
10
170
187
221
48
222
221
48
222
221
48
222
255
87
51
255
87
51
255
87
51
5
198
43
5
198
43
5
198
43
0
3
37
0
0
244
128
10
170
187
220
182
204
220
182
204
220
182
204
255
128
175
255
128
175
255
128
175
6
93
110
6
93
110
6
93
110
0
3
37
0
0
244
128
10
170
187
222
159
20
222
159
20
222
159
20
255
66
56
255
66
56
255
66
56
6
226
149
6
226
149
6
226
149
0
3
37
0
0
244
128
10
170
187
222
159
20
222
159
20
222
159
20
254
223
10
254
223
10
254
223
10
7
79
243
7
79
243
7
79
243
0
3
37
0
0
244
128
10
170
187
221
48
222
221
48
222
221
48
222
254
183
118
254
183
118
254
183
118
7
160
132
7
160
132
7
160
132
0
3
37
0
0
244
128
10
170
187
223
25
38
223
25
38
223
25
38
254
221
155
254
221
155
254
221
155
7
208
59
7
208
59
7
208
59
0
3
37
0
0
244
128
10
170
187
222
37
2
222
37
2
222
37
2
255
75
194
255
75
194
255
75
194
7
220
43
7
220
43
7
220
43
0
3
37
0
0
244
128
10
170
187
221
170
240
221
170
240
221
170
240
255
248
95
255
248
95
255
248
95
7
194
189
7
194
189
7
194
189
0
3
37
0
0
244
128
10
170
187
222
37
2
222
37
2
222
37
2
0
167
95
0
167
95
0
167
95
7
131
193
7
131
193
7
131
193
0
3
37
0
0
244
128
10
170
187
220
60
186
220
60
186
220
60
186
1
31
136
1
31
136
1
31
136
7
32
119
7
32
119
7
32
119
0
3
37
0
0
244
128
10
170
187
222
37
2
222
37
2
222
37
2
1
85
228
1
85
228
1
85
228
6
155
136
6
155
136
6
155
136
0
3
37
0
0
244
128
10
170
187
222
37
2
222
37
2
222
37
2
1
57
72
1
57
72
1
57
72
5
248
232
5
248
232
5
248
232
0
3
37
0
0
244
128
10
170
187
221
170
240
221
170
240
221
170
240
0
177
98
0
177
98
0
177
98
5
61
157
5
61
157
5
61
157
0
3
37
0
0
244
128
10
170
187
221
170
240
221
170
240
221
170
240
255
231
175
255
231
175
255
231
175
4
111
136
4
111
136
4
111
136
0
3
37
0
0
244
128
10
170
187
222
37
2
222
37
2
222
37
2
255
78
158
255
78
158
255
78
158
3
149
10
3
149
10
3
149
10
0
3
37
0
0
244
128
10
170
187
223
25
38
223
25
38
223
25
38
255
25
177
255
25
177
255
25
177
2
180
189
2
180
189
2
180
189
0
3
37
0
0
244
128
10
170
187
223
147
56
223
147
56
223
147
56
255
34
192
255
34
192
255
34
192
1
213
13
1
213
13
1
213
13
0
3
37
0
0
244
128
10
170
187
226
233
182
226
233
182
226
233
182
255
108
169
255
108
169
255
108
169
0
251
240
0
251
240
0
251
240
0
3
37
0
0
244
128
10
170
187
226
111
164
226
111
164
226
111
164
0
16
54
0
16
54
0
16
54
0
46
161
0
46
161
0
46
161
0
3
37
0
0
244
128
10
170
187
228
87
236
228
87
236
228
87
236
1
0
137
1
0
137
1
0
137
255
113
113
255
113
113
255
113
113
0
3
37
0
0
244
128
10
170
187
229
198
34
229
198
34
229
198
34
2
34
116
2
34
116
2
34
116
254
199
170
254
199
170
254
199
170
0
3
37
0
0
244
128
10
170
187
229
76
16
229
76
16
229
76
16
3
81
185
3
81
185
3
81
185
254
51
136
254
51
136
254
51
136
0
3
37
0
0
244
128
10
170
187
230
186
70
230
186
70
230
186
70
4
108
125
4
108
125
4
108
125
253
182
77
253
182
77
253
182
77
0
3
37
0
0
211
160
10
170
187
232
162
142
232
162
142
232
162
142
5
91
220
5
91
220
5
91
220
253
80
91
253
80
91
253
80
91
0
3
37
0
0
211
128
10
170
187
230
186
70
230
186
70
230
186
70
6
11
208
6
11
208
6
11
208
253
1
96
253
1
96
253
1
96
0
3
37
0
0
211
128
10
170
187
229
76
16
229
76
16
229
76
16
6
104
205
6
104
205
6
104
205
252
200
123
252
200
123
252
200
123
0
3
37
0
0
211
128
10
170
187
230
64
52
230
64
52
230
64
52
6
104
83
6
104
83
6
104
83
252
164
106
252
164
106
252
164
106
0
3
37
0
0
211
128
10
170
187
229
76
16
229
76
16
229
76
16
5
252
20
5
252
20
5
252
20
252
147
164
252
147
164
252
147
164
0
3
37
0
0
211
128
10
170
187
229
76
16
229
76
16
229
76
16
5
10
204
5
10
204
5
10
204
252
148
120
252
148
120
252
148
120
0
3
37
0
0
211
128
10
170
187
230
186
70
230
186
70
230
186
70
3
168
8
3
168
8
3
168
8
252
165
21
252
165
21
252
165
21
0
3
37
0
0
211
128
10
170
187
233
28
160
233
28
160
233
28
160
2
47
207
2
47
207
2
47
207
252
195
161
252
195
161
252
195
161
0
