170
187
229
198
34
229
198
34
229
198
34
0
0
0
0
0
0
0
0
0
0
0
0
0
0
0
0
0
0
0
0
0
0
0
0
128
10
170
187
228
209
254
229
198
34
229
198
34
0
0
0
0
0
0
0
0
0
0
0
0
0
0
0
0
0
0
0
0
0
0
0
0
128
10
170
187
228
87
236
229
198
34
229
198
34
255
229
198
255
229
198
0
0
0
0
0
0
0
0
0
0
0
0
0
0
0
0
0
0
128
10
170
187
229
76
16
229
198
34
229
198
34
254
115
191
254
115
191
0
0
0
0
0
0
0
0
0
0
0
0
0
0
0
0
0
0
128
10
170
187
227
99
200
229
198
34
229
198
34
249
29
33
249
29
33
0
0
0
0
0
0
0
0
0
0
0
0
0
0
0
0
0
0
128
10
170
187
225
123
128
229
198
34
229
198
34
240
31
234
240
31
234
0
0
0
255
255
255
255
255
255
0
0
0
0
0
0
0
0
0
128
10
170
187
221
170
240
229
198
34
229
198
34
232
67
169
232
67
169
0
0
0
255
255
255
255
255
255
0
0
0
0
0
0
0
0
0
128
10
170
187
219
72
150
229
198
34
229
198
34
228
186
159
228
186
159
0
0
0
255
255
254
255
255
254
0
0
0
0
0
0
0
0
0
128
10
170
187
212
155
154
229
198
34
229
198
34
227
225
170
227
225
170
0
0
0
255
255
251
255
255
251
0
0
0
0
0
0
0
0
0
128
10
170
187
209
191
46
228
209
254
229
198
34
228
65
130
228
65
130
0
0
0
255
255
240
255
255
240
0
0
0
0
0
0
0
0
0
128
10
170
187
224
135
92
228
87
236
229
198
34
231
127
175
231
127
175
0
0
0
255
255
212
255
255
212
0
0
0
0
0
0
0
0
0
128
10
170
187
249
83
4
229
76
16
229
198
34
237
124
183
237
124
183
0
0
0
255
255
144
255
255
144
0
0
0
0
0
0
0
0
0
128
10
170
187
35
195
70
227
99
200
229
198
34
241
203
164
241
203
164
0
0
0
255
254
249
255
254
249
0
0
0
0
0
0
0
0
0
128
10
170
187
74
98
248
225
123
128
229
198
34
242
237
21
242
237
21
0
0
0
255
253
192
255
253
192
0
0
0
0
0
0
0
0
0
128
10
170
187
72
244
194
221
170
240
229
198
34
246
231
155
246
231
155
0
0
0
255
251
93
255
251
93
0
0
0
0
0
0
0
0
0
128
10
170
187
16
54
100
219
72
150
229
198
34
5
79
241
5
79
241
0
0
0
255
246
243
255
246
243
0
0
0
0
0
0
0
0
0
128
10
170
187
221
48
222
212
155
154
229
198
34
32
119
70
32
119
70
0
0
0
255
239
48
255
239
48
0
0
0
0
0
0
0
0
0
128
10
170
187
215
120
6
209
191
46
228
209
254
66
6
114
66
6
114
0
0
0
255
226
36
255
226
36
0
0
0
0
0
0
0
0
0
128
10
170
187
224
135
92
224
135
92
228
87
236
89
244
96
89
244
96
0
0
0
255
205
32
255
205
32
0
0
0
0
0
0
0
0
0
128
10
170
187
224
13
74
249
83
4
229
76
16
86
228
238
86
228
238
0
0
0
255
172
149
255
172
149
0
0
0
0
0
0
0
0
0
128
10
170
187
224
135
92
35
195
70
227
99
200
54
189
196
54
189
196
0
0
0
255
124
8
255
124
8
0
0
0
0
0
0
0
0
0
128
10
170
187
225
245
146
74
98
248
225
123
128
9
200
89
9
200
89
0
0
0
255
54
33
255
54
33
0
0
0
0
0
0
0
0
0
128
10
170
187
225
123
128
72
244
194
221
170
240
224
23
77
224
23
77
0
0
0
254
212
218
254
212
218
0
0
0
0
0
119
0
0
0
192
10
170
187
223
147
56
16
54
100
219
72
150
190
162
213
190
162
213
0
0
0
254
81
230
254
81
230
0
0
0
0
0
119
0
0
0
128
10
170
187
223
25
38
221
48
222
212
155
154
171
150
177
171
150
177
0
0
0
253
167
61
253
167
61
0
0
0
0
0
119
0
0
0
128
10
170
187
224
135
92
215
120
6
209
191
46
178
16
47
178
16
47
0
0
0
252
207
226
252
207
226
0
0
0
0
0
119
0
0
0
128
10
170
187
224
135
92
224
135
92
224
135
92
207
164
91
207
164
91
0
0
0
251
200
196
251
200
196
0
0
0
0
0
119
0
0
0
128
10
170
187
224
135
92
224
13
74
249
83
4
239
40
113
239
40
113
0
0
0
250
145
192
250
145
192
0
0
0
0
0
119
0
0
0
128
10
170
187
223
25
38
224
135
92
35
195
70
255
78
36
255
78
36
0
0
0
249
46
129
249
46
129
0
0
0
0
0
119
0
0
0
128
10
170
187
224
13
74
225
245
146
74
98
248
1
230
96
1
230
96
0
0
0
247
167
73
247
167
73
0
0
0
0
0
119
0
0
0
128
10
170
187
226
233
182
225
123
128
72
244
194
0
161
166
0
161
166
0
0
0
246
9
82
246
9
82
0
0
0
0
0
119
0
0
0
128
10
170
187
225
123
128
223
147
56
16
54
100
255
187
85
255
187
85
0
0
0
244
102
184
244
102
184
0
0
0
0
0
119
0
0
0
128
10
170
187
223
147
56
223
25
38
221
48
222
255
31
227
255
31
227
0
0
0
242
213
204
242
213
204
0
0
0
0
0
119
0
0
0
128
10
170
187
223
147
56
224
135
92
215
120
6
255
18
15
255
18
15
0
0
0
241
111
198
241
111
198
0
0
0
0
0
119
0
0
0
128
10
170
187
222
37
2
224
135
92
224
135
92
255
231
175
255
231
175
0
0
0
240
78
212
240
78
212
0
0
0
0
0
119
0
0
0
128
10
170
187
223
147
56
224
135
92
224
13
74
0
193
152
0
193
152
0
0
0
239
139
186
239
139
186
0
0
0
0
0
119
0
0
0
128
10
170
187
224
135
92
223
25
38
224
135
92
0
166
106
0
166
106
0
0
0
239
59
53
239
59
53
0
0
0
0
0
119
0
0
0
128
10
170
187
223
147
56
224
13
74
225
245
146
255
223
147
255
223
147
0
0
0
239
107
116
239
107
116
0
0
0
0
0
119
0
0
0
128
10
170
187
225
1
110
226
233
182
225
123
128
255
79
23
255
79
23
0
0
0
240
33
250
240
33
250
0
0
0
0
0
119
0
0
0
128
10
170
187
224
135
92
225
123
128
223
147
56
255
47
158
255
47
158
0
0
0
241
90
69
241
90
69
0
0
0
0
0
119
0
0
0
128
10
170
187
224
13
74
223
147
56
223
25
38
255
25
53
255
25
53
0
0
0
243
5
108
243
5
108
0
0
0
0
0
119
0
0
0
128
10
170
187
223
147
56
223
147
56
224
135
92
254
240
174
254
240
174
0
0
0
245
10
231
245
10
231
0
0
0
0
0
119
0
0
0
128
10
170
187
223
147
56
222
37
2
224
135
92
255
49
14
255
49
14
0
0
0
247
74
80
247
74
80
0
0
0
0
0
119
0
0
0
128
10
170
187
222
37
2
223
147
56
224
135
92
0
5
63
0
5
63
0
0
0
249
158
16
249
158
16
0
0
0
0
0
119
0
0
0
128
10
170
187
223
25
38
224
135
92
223
25
38
0
214
148
0
214
148
0
0
0
251
222
141
251
222
141
0
0
0
0
0
119
0
0
0
128
10
170
187
225
123
128
223
147
56
224
13
74
0
252
64
0
252
64
0
0
0
253
229
104
253
229
104
0
0
0
0
0
119
0
0
0
128
10
170
187
224
135
92
225
1
110
226
233
182
0
94
228
0
94
228
0
0
0
255
144
121
255
144
121
0
0
0
0
0
119
0
0
0
128
10
170
187
224
135
92
224
135
92
225
123
128
255
137
69
255
137
69
0
0
0
0
196
44
0
196
44
0
0
0
0
0
119
0
0
0
128
10
170
187
224
13
74
224
13
74
223
147
56
255
36
45
255
36
45
0
0
0
1
109
16
1
109
16
0
0
0
0
0
119
0
0
0
128
10
170
187
223
25
38
223
147
56
223
147
56
255
82
233
255
82
233
0
0
0
1
128
144
1
128
144
0
0
0
0
0
119
0
0
0
128
10
170
187
223
147
56
223
147
56
222
37
2
255
181
157
255
181
157
0
0
0
0
252
243
0
252
243
0
0
0
0
0
119
0
0
0
128
10
170
187
224
13
74
222
37
2
223
147
56
255
246
240
255
246
240
0
0
0
255
232
226
255
232
226
0
0
0
0
0
119
0
0
0
128
10
170
187
222
159
20
223
25
38
224
135
92
0
28
34
0
28
34
0
0
0
254
82
150
254
82
150
0
0
0
0
0
119
0
0
0
128
10
170
187
223
25
38
225
123
128
223
147
56
0
54
214
0
54
214
0
0
0
252
78
230
252
78
230
0
0
0
0
0
119
0
0
0
128
10
170
187
224
13
74
224
135
92
225
1
110
0
34
208
0
34
208
0
0
0
249
248
83
249
248
83
0
0
0
0
0
119
0
0
0
128
10
170
187
222
159
20
224
135
92
224
135
92
255
205
116
255
205
116
0
0
0
247
109
242
247
109
242
0
0
0
0
0
119
0
0
0
128
10
170
187
222
37
2
224
13
74
224
13
74
255
108
46
255
108
46
0
0
0
244
210
56
244
210
56
0
0
0
0
0
119
0
0
0
128
10
170
187
223
25
38
223
25
38
223
147
56
255
71
119
255
71
119
0
0
0
242
73
93
242
73
93
0
0
0
0
0
119
0
0
0
128
10
170
187
222
159
20
223
147
56
223
147
56
255
119
160
255
119
160
0
0
0
239
247
127
239
247
127
0
0
0
0
0
119
0
0
0
128
10
170
187
221
170
240
224
13
74
222
37
2
255
189
184
255
189
184
0
0
0
237
254
70
237
254
70
0
0
0
0
0
119
0
0
0
128
10
170
187
221
48
222
222
159
20
223
25
38
255
189
184
255
189
184
0
0
0
236
122
109
236
122
109
0
0
0
0
0
119
0
0
0
128
10
170
187
220
182
204
223
25
38
225
123
128
255
132
128
255
132
128
0
0
0
235
129
92
235
129
92
0
0
0
0
0
119
0
0
0
128
10
170
187
220
182
204
224
13
74
224
135
92
255
84
209
255
84
209
0
0
0
235
31
42
235
31
42
0
0
0
0
0
119
0
0
0
128
10
170
187
222
37
2
222
159
20
224
135
92
255
12
208
255
12
208
0
0
0
235
85
114
235
85
114
0
0
0
0
0
119
0
0
0
128
10
170
187
220
60
186
222
37
2
224
13
74
254
124
208
254
124
208
0
0
0
236
27
45
236
27
45
0
0
0
0
0
119
0
0
0
128
10
170
187
221
48
222
223
25
38
223
25
38
253
247
197
253
247
197
0
0
0
237
93
180
237
93
180
0
0
0
0
0
119
0
0
0
128
10
170
187
221
170
240
222
159
20
223
147
56
253
225
92
253
225
92
0
0
0
239
2
202
239
2
202
0
0
0
0
0
119
0
0
0
128
10
170
187
221
48
222
221
170
240
224
13
74
254
23
184
254
23
184
0
0
0
240
235
111
240
235
111
0
0
0
0
0
119
0
0
0
128
10
170
187
222
37
2
221
48
222
222
159
20
254
75
178
254
75
178
0
0
0
242
247
15
242
247
15
0
0
0
0
0
119
0
0
0
128
10
170
187
225
1
110
220
182
204
223
25
38
254
149
155
254
149
155
0
0
0
245
6
169
245
6
169
0
0
0
0
0
119
0
0
0
128
10
170
187
224
13
74
220
182
204
224
13
74
255
47
37
255
47
37
0
0
0
246
255
106
246
255
106
0
0
0
0
0
119
0
0
0
128
10
170
187
225
245
146
222
37
2
222
159
20
255
252
48
255
252
48
0
0
0
248
204
135
248
204
135
0
0
0
0
0
119
0
0
0
128
10
170
187
227
99
200
220
60
186
222
37
2
0
217
234
0
217
234
0
0
0
250
96
34
250
96
34
0
0
0
0
0
119
0
0
0
128
10
170
187
227
221
218
221
48
222
223
25
38
1
207
124
1
207
124
0
0
0
251
179
69
251
179
69
0
0
0
0
0
119
0
0
0
128
10
170
187
228
209
254
221
170
240
222
159
20
2
203
65
2
203
65
0
0
0
252
197
13
252
197
13
0
0
0
0
0
119
0
0
0
128
10
170
187
231
174
106
221
48
222
221
170
240
3
195
176
3
195
176
0
0
0
253
153
95
253
153
95
0
0
0
0
0
119
0
0
0
128
10
170
187
232
40
124
222
37
2
221
48
222
4
208
159
4
208
159
0
0
0
254
55
79
254
55
79
0
0
0
0
0
119
0
0
0
128
10
170
187
231
174
106
225
1
110
220
182
204
5
209
163
5
209
163
0
0
0
254
167
149
254
167
149
0
0
0
0
0
119
0
0
0
128
10
170
187
234
16
196
224
13
74
220
182
204
6
111
121
6
111
121
0
0
0
254
243
59
254
243
59
0
0
0
0
0
119
0
0
0
128
10
170
187
232
162
142
225
245
146
222
37
2
6
165
91
6
165
91
0
0
0
255
34
168
255
34
168
0
0
0
0
0
119
0
0
0
128
10
170
187
231
174
106
227
99
200
220
60
186
6
191
149
6
191
149
0
0
0
255
60
255
255
60
255
0
0
0
0
0
119
0
0
0
128
10
170
187
232
40
124
227
221
218
221
48
222
6
179
169
6
179
169
0
0
0
255
71
232
255
71
232
0
0
0
0
0
119
0
0
0
128
10
170
187
232
162
142
228
209
254
221
170
240
6
57
29
6
57
29
0
0
0
255
71
158
255
71
158
0
0
0
0
0
119
0
0
0
128
10
170
187
232
40
124
231
174
106
221
48
222
5
89
0
5
89
0
0
0
0
255
63
38
255
63
38
0
0
0
0
0
119
0
0
0
128
10
170
187
230
186
70
232
40
124
222
37
2
4
55
143
4
55
143
0
0
0
255
48
162
255
48
162
0
0
0
0
0
119
0
0
0
128
10
170
187
231
52
88
231
174
106
225
1
110
2
222
84
2
222
84
0
0
0
255
29
172
255
29
172
0
0
0
0
0
119
0
0
0
128
10
170
187
230
64
52
234
16
196
224
13
74
1
139
198
1
139
198
0
0
0
255
7
167
255
7
167
0
0
0
0
0
119
0
0
0
128
10
170
187
231
52
88
232
162
142
225
245
146
0
133
10
0
133
10
0
0
0
254
239
252
254
239
252
0
0
0
0
0
119
0
0
0
128
10
170
187
229
76
16
231
174
106
227
99
200
255
170
166
255
170
166
0
0
0
254
216
75
254
216
75
0
0
0
0
0
119
0
0
0
128
10
170
187
229
198
34
232
40
124
227
221
218
254
237
210
254
237
210
0
0
0
254
194
130
254
194
130
0
0
0
0
0
119
0
0
0
128
10
170
187
231
52
88
232
162
142
228
209
254
254
137
53
254
137
53
0
0
0
254
176
227
254
176
227
0
0
0
0
0
119
0
0
0
128
10
170
187
229
76
16
232
40
124
231
174
106
254
90
244
254
90
244
0
0
0
254
166
1
254
166
1
0
0
0
0
0
119
0
0
0
128
10
170
187
229
198
34
230
186
70
232
40
124
254
10
94
254
10
94
0
0
0
254
164
167
254
164
167
0
0
0
0
0
119
0
0
0
128
10
170
187
230
186
70
231
52
88
231
174
106
253
197
180
253
197
180
0
0
0
254
175
179
254
175
179
0
0
0
0
0
119
0
0
0
128
10
170
187
228
209
254
230
64
52
234
16
196
253
240
158
253
240
158
0
0
0
254
201
251
254
201
251
0
0
0
0
0
119
0
0
0
128
10
170
187
229
76
16
231
52
88
232
162
142
254
91
110
254
91
110
0
0
0
254
246
11
254
246
11
0
0
0
0
0
119
0
0
0
128
10
170
187
228
209
254
229
76
16
231
174
106
254
174
102
254
174
102
0
0
0
255
54
9
255
54
9
0
0
0
0
0
119
0
0
0
128
10
170
187
227
99
200
229
198
34
232
40
124
255
7
146
255
7
146
0
0
0
255
139
112
255
139
112
0
0
0
0
0
119
0
0
0
128
10
170
187
226
233
182
231
52
88
232
162
142
255
112
243
255
112
243
0
0
0
255
246
238
255
246
238
0
0
0
0
0
119
0
0
0
128
10
170
187
227
99
200
229
76
16
232
40
124
255
155
221
255
155
221
0
0
0
0
120
56
0
120
56
0
0
0
0
0
119
0
0
0
128
10
170
187
226
111
164
229
198
34
230
186
70
255
100
19
255
100
19
0
0
0
1
13
244
1
13
244
0
0
0
0
0
119
0
0
0
128
10
170
187
227
221
218
230
186
70
231
52
88
254
242
150
254
242
150
0
0
0
1
181
168
1
181
168
0
0
0
0
0
119
0
0
0
128
10
170
187
228
209
254
228
209
254
230
64
52
254
104
78
254
104
78
0
0
0
2
107
189
2
107
189
0
0
0
0
0
119
0
0
0
128
10
170
187
227
221
218
229
76
16
231
52
88
253
212
124
253
212
124
0
0
0
3
43
154
3
43
154
0
0
0
0
0
119
0
0
0
128
10
170
187
228
87
236
228
209
254
229
76
16
253
132
219
253
132
219
0
0
0
3
239
195
3
239
195
0
0
0
0
0
119
0
0
0
128
10
170
187
227
99
200
227
99
200
229
198
34
253
208
171
253
208
171
0
0
0
4
178
20
4
178
20
0
0
0
0
0
119
0
0
0
128
10
170
187
226
111
164
226
233
182
231
52
88
254
142
238
254
142
238
0
0
0
5
108
13
5
108
13
0
0
0
0
0
119
0
0
0
128
10
170
187
226
111
164
227
99
200
229
76
16
255
74
83
255
74
83
0
0
0
6
23
20
6
23
20
0
0
0
0
0
119
0
0
0
128
10
170
187
228
87
236
226
111
164
229
198
34
255
205
117
255
205
117
0
0
0
6
172
212
6
172
212
0
0
0
0
0
119
0
0
0
128
10
170
187
225
1
110
227
221
218
230
186
70
0
15
188
0
15
188
0
0
0
7
39
145
7
39
145
0
0
0
0
0
119
0
0
0
128
10
170
187
225
245
146
228
209
254
228
209
254
255
242
166
255
242
166
0
0
0
7
130
108
7
130
108
0
0
0
0
0
119
0
0
0
128
10
170
187
226
233
182
227
221
218
229
76
16
255
121
137
255
121
137
0
0
0
7
185
182
7
185
182
0
0
0
0
0
119
0
0
0
128
10
170
187
225
123
128
228
87
236
228
209
254
254
234
245
254
234
245
0
0
0
7
203
14
7
203
14
0
0
0
0
0
119
0
0
0
128
10
170
187
225
1
110
227
99
200
227
99
200
254
123
219
254
123
219
0
0
0
7
181
146
7
181
146
0
0
0
0
0
119
0
0
0
128
10
170
187
226
111
164
226
111
164
226
233
182
254
77
32
254
77
32
0
0
0
7
121
220
7
121
220
0
0
0
0
0
119
0
0
0
128
10
170
187
226
233
182
226
111
164
227
99
200
254
135
199
254
135
199
0
0
0
7
25
249
7
25
249
0
0
0
0
0
119
0
0
0
128
10
170
187
227
99
200
228
87
236
226
111
164
254
243
16
254
243
16
0
0
0
6
153
73
6
153
73
0
0
0
0
0
119
0
0
0
128
10
170
187
228
87
236
225
1
110
227
221
218
255
29
6
255
29
6
0
0
0
5
252
76
5
252
76
0
0
0
0
0
119
0
0
0
128
10
170
187
227
99
200
225
245
146
228
209
254
255
47
37
255
47
37
0
0
0
5
72
98
5
72
98
0
0
0
0
0
119
0
0
0
128
10
170
187
226
233
182
226
233
182
227
221
218
255
179
59
255
179
59
0
0
0
4
131
129
4
131
129
0
0
0
0
0
119
0
0
0
128
10
170
187
229
76
16
225
123
128
228
87
236
0
129
56
0
129
56
0
0
0
3
179
233
3
179
233
0
0
0
0
0
119
0
0
0
128
10
170
187
226
233
182
225
1
110
227
99
200
1
0
137
1
0
137
0
0
0
2
223
218
2
223
218
0
0
0
0
0
119
0
0
0
128
10
170
187
226
233
182
226
111
164
226
111
164
1
65
221
1
65
221
0
0
0
2
13
71
2
13
71
0
0
0
0
0
119
0
0
0
128
10
170
187
228
87
236
226
233
182
226
111
164
1
159
83
1
159
83
0
0
0
1
65
159
1
65
159
0
0
0
0
0
119
0
0
0
128
10
170
187
230
64
52
227
99
200
228
87
236
1
216
18
1
216
18
0
0
0
0
129
150
0
129
150
0
0
0
0
0
119
0
0
0
128
10
170
187
229
198
34
228
87
236
225
1
110
1
124
10
1
124
10
0
0
0
255
208
252
255
208
252
0
0
0
0
0
119
0
0
0
128
10
170
187
232
40
124
227
99
200
225
245
146
0
200
192
0
200
192
0
0
0
255
50
172
255
50
172
0
0
0
0
0
119
0
0
0
128
10
170
187
231
174
106
226
233
182
226
233
182
0
138
73
0
138
73
0
0
0
254
168
126
254
168
126
0
0
0
0
0
119
0
0
0
128
10
170
187
235
4
232
229
76
16
225
123
128
1
25
208
1
25
208
0
0
0
254
51
78
254
51
78
0
0
0
0
0
119
0
0
0
128
10
170
187
236
237
48
226
233
182
225
1
110
1
250
103
1
250
103
0
0
0
253
211
14
253
211
14
0
0
0
0
0
119
0
0
0
128
10
170
187
235
126
250
226
233
182
226
111
164
2
199
112
2
199
112
0
0
0
253
134
235
253
134
235
0
0
0
0
0
119
0
0
0
128
10
170
187
235
4
232
228
87
236
226
233
182
3
231
115
3
231
115
0
0
0
253
77
111
253
77
111
0
0
0
0
0
119
0
0
0
128
10
170
187
234
138
214
230
64
52
227
99
200
5
157
48
5
157
48
0
0
0
253
36
183
253
36
183
0
0
0
0
0
119
0
0
0
128
10
170
187
234
16
196
229
198
34
228
87
236
7
8
15
7
8
15
0
0
0
253
10
163
253
10
163
0
0
0
0
0
119
0
0
0
128
10
170
187
233
28
160
232
40
124
227
99
200
7
26
46
7
26
46
0
0
0
252
253
9
252
253
9
0
0
0
0
0
119
0
0
0
128
10
170
187
235
4
232
231
174
106
226
233
182
5
250
166
5
250
166
0
0
0
252
249
229
252
249
229
0
0
0
0
0
119
0
0
0
128
10
170
187
236
115
30
235
4
232
229
76
16
4
123
192
4
123
192
0
0
0
252
255
124
252
255
124
0
0
0
0
0
119
0
0
0
128
10
170
187
228
209
254
236
237
48
226
233
182
2
220
108
2
220
108
0
0
0
253
12
114
253
12
114
0
0
0
0
0
119
0
0
0
128
10
170
187
227
99
200
235
126
250
226
233
182
1
4
90
1
4
90
0
0
0
253
31
215
253
31
215
0
0
0
0
0
119
0
0
0
128
10
170
187
224
135
92
235
4
232
228
87
236
255
116
74
255
116
74
0
0
0
253
57
38
253
57
38
0
0
0
0
0
119
0
0
0
128
10
170
187
225
1
110
234
138
214
230
64
52
254
161
12
254
161
12
0
0
0
253
88
54
253
88
54
0
0
0
0
0
119
0
0
0
128
10
170
187
225
123
128
234
16
196
229
198
34
253
176
185
253
176
185
0
0
0
253
125
42
253
125
42
0
0
0
0
0
119
0
0
0
128
10
170
187
225
1
110
233
28
160
232
40
124
251
185
46
251
185
46
0
0
0
253
168
91
253
168
91
0
0
0
0
0
119
0
0
0
128
10
170
187
223
25
38
235
4
232
231
174
106
249
111
38
249
111
38
0
0
0
253
218
62
253
218
62
0
0
0
0
0
119
0
0
0
128
10
170
187
223
147
56
236
115
30
235
4
232
247
244
17
247
244
17
0
0
0
254
19
91
254
19
91
0
0
0
0
0
119
0
0
0
128
10
170
187
223
25
38
228
209
254
236
237
48
247
69
16
247
69
16
0
0
0
254
84
57
254
84
57
0
0
0
0
0
119
0
0
0
128
10
170
187
224
135
92
227
99
200
235
126
250
246
249
63
246
249
63
0
0
0
254
157
89
254
157
89
0
0
0
0
0
119
0
0
0
128
10
170
187
224
135
92
224
135
92
235
4
232
247
125
84
247
125
84
0
0
0
254
239
46
254
239
46
0
0
0
0
0
119
0
1
127
160
10
170
187
223
25
38
225
1
110
234
138
214
249
60
33
249
60
33
0
0
0
255
74
19
255
74
19
0
0
0
0
0
119
0
1
127
128
10
170
187
223
147
56
225
123
128
234
16
196
251
121
195
251
121
195
0
0
0
255
174
62
255
174
62
0
0
0
0
0
119
0
1
127
128
10
170
187
225
1
110
225
1
110
233
28
160
253
62
194
253
62
194
0
0
0
0
27
169
0
27
169
0
0
0
0
0
119
0
1
127
128
10
170
187
222
159
20
223
25
38
235
4
232
254
70
115
254
70
115
0
0
0
0
145
242
0
145
242
0
0
0
0
0
119
0
1
127
128
10
170
187
221
170
240
223
147
56
236
115
30
254
201
27
254
201
27
0
0
0
1
16
59
1
16
59
0
0
0
0
0
119
0
1
127
128
10
170
187
215
120
6
223
25
38
228
209
254
255
67
167
255
67
167
0
0
0
1
149
8
1
149
8
0
0
0
0
0
119
0
1
127
128
10
170
187
210
179
82
224
135
92
227
99
200
255
242
166
255
242
166
0
0
0
2
30
26
2
30
26
0
0
0
0
0
119
0
1
127
128
10
170
187
207
92
212
224
135
92
224
135
92
0
52
238
0
52
238
0
0
0
2
168
95
2
168
95
0
0
0
0
0
119
0
1
127
128
10
170
187
212
87
201
223
25
38
225
1
110
255
8
133
255
8
133
0
0
0
3
47
241
3
47
241
0
0
0
0
0
119
0
1
127
128
10
170
187
217
82
190
223
147
56
225
123
128
252
11
173
252
11
173
0
0
0
3
176
37
3
176
37
0
0
0
0
0
119
0
1
127
128
10
170
187
222
77
179
225
1
110
225
1
110
247
239
238
247
239
238
0
0
0
4
35
183
4
35
183
0
0
0
0
0
119
0
1
127
128
10
170
187
227
72
168
222
159
20
223
25
38
244
91
250
244
91
250
0
0
0
4
133
8
4
133
8
0
0
0
0
0
119
0
1
127
128
10
170
187
229
198
34
221
170
240
223
147
56
243
58
165
243
58
165
0
0
0
4
206
107
4
206
107
0
0
0
0
0
119
0
1
127
128
10
170
187
229
76
16
215
120
6
223
25
38
245
151
139
245
151
139
0
0
0
4
250
129
4
250
129
0
0
0
0
0
119
0
1
127
128
10
170
187
226
233
182
210
179
82
224
135
92
251
6
176
251
6
176
0
0
0
5
4
146
5
4
146
0
0
0
0
0
119
0
1
127
128
10
170
187
227
99
200
207
92
212
224
135
92
2
95
85
2
95
85
0
0
0
4
232
232
4
232
232
0
0
0
0
0
119
0
1
127
128
10
170
187
228
87
236
212
87
201
223
25
38
10
46
182
10
46
182
0
0
0
4
165
23
4
165
23
0
0
0
0
0
119
0
1
127
128
10
170
187
225
245
146
217
82
190
223
147
56
16
19
204
16
19
204
0
0
0
4
56
48
4
56
48
0
0
0
0
0
119
0
1
127
128
10
170
187
224
13
74
222
77
179
225
1
110
17
189
61
17
189
61
0
0
0
3
162
232
3
162
232
0
0
0
0
0
119
0
1
127
128
10
170
187
219
72
150
227
72
168
222
159
20
15
66
254
15
66
254
0
0
0
2
231
156
2
231
156
0
0
0
0
0
119
0
1
127
128
10
170
187
217
96
78
229
198
34
221
170
240
10
164
206
10
164
206
0
0
0
2
10
55
2
10
55
0
0
0
0
0
119
0
1
127
128
10
170
187
209
191
46
229
76
16
215
120
6
5
68
45
5
68
45
0
0
0
1
16
3
1
16
3
0
0
0
0
0
119
0
1
127
128
10
170
187
215
120
6
226
233
182
210
179
82
255
188
196
255
188
196
0
0
0
255
255
110
255
255
110
0
0
0
0
0
119
0
1
127
128
10
170
187
235
4
232
227
99
200
207
92
212
250
230
121
250
230
121
0
0
0
254
223
174
254
223
174
0
0
0
0
0
119
0
1
127
128
10
170
187
11
113
176
228
87
236
212
87
201
247
19
203
247
19
203
0
0
0
253
184
103
253
184
103
0
0
0
0
0
119
0
1
127
128
10
170
187
59
32
184
225
245
146
217
82
190
244
24
41
244
24
41
0
0
0
252
145
86
252
145
86
0
0
0
0
0
119
0
1
127
128
10
170
187
80
27
208
224
13
74
222
77
179
244
32
164
244
32
164
0
0
0
251
113
254
251
113
254
0
0
0
0
0
119
0
1
127
128
10
170
187
49
151
80
219
72
150
227
72
168
252
123
187
252
123
187
0
0
0
250
97
104
250
97
104
0
0
0
0
0
119
0
1
127
128
10
170
187
240
67
174
217
96
78
229
198
34
17
115
125
17
115
125
0
0
0
249
101
255
249
101
255
0
0
0
0
0
119
0
1
127
128
10
170
187
214
131
226
209
191
46
229
76
16
49
63
146
49
63
146
0
0
0
248
133
125
248
133
125
0
0
0
0
0
119
0
1
127
128
10
170
187
220
182
204
215
120
6
226
233
182
80
114
30
80
114
30
0
0
0
247
196
220
247
196
220
0
0
0
0
0
119
0
1
127
128
10
170
187
225
1
110
235
4
232
227
99
200
92
116
74
92
116
74
0
0
0
247
40
109
247
40
109
0
0
0
0
0
119
0
1
127
128
10
170
187
223
25
38
11
113
176
228
87
236
73
181
102
73
181
102
0
0
0
246
179
211
246
179
211
0
0
0
0
0
119
0
1
127
128
10
170
187
225
1
110
59
32
184
225
245
146
32
150
190
32
150
190
0
0
0
246
106
10
246
106
10
0
0
0
0
0
119
0
1
127
128
10
170
187
226
111
164
80
27
208
224
13
74
244
9
192
244
9
192
0
0
0
246
77
83
246
77
83
0
0
0
0
0
119
0
1
127
128
10
170
187
224
13
74
49
151
80
219
72
150
206
42
179
206
42
179
0
0
0
246
95
23
246
95
23
0
0
0
0
0
119
0
1
127
128
10
170
187
225
1
110
240
67
174
217
96
78
178
143
249
178
143
249
0
0
0
246
159
208
246
159
208
0
0
0
0
0
119
0
1
127
128
10
170
187
224
13
74
214
131
226
209
191
46
171
60
146
171
60
146
0
0
0
247
14
237
247
14
237
0
0
0
0
0
119
0
1
127
128
10
170
187
224
13
74
220
182
204
215
120
6
191
9
90
191
9
90
0
0
0
247
170
214
247
170
214
0
0
0
0
0
119
0
1
127
128
10
170
187
225
1
110
225
1
110
235
4
232
224
166
213
224
166
213
0
0
0
248
113
29
248
113
29
0
0
0
0
0
119
0
1
127
128
10
170
187
224
135
92
223
25
38
11
113
176
249
114
247
249
114
247
0
0
0
249
94
217
249
94
217
0
0
0
0
0
119
0
1
127
128
10
170
187
222
37
2
225
1
110
59
32
184
1
166
245
1
166
245
0
0
0
250
113
45
250
113
45
0
0
0
0
3
157
0
1
127
192
10
170
187
225
1
110
226
111
164
80
27
208
1
79
178
1
79
178
0
0
0
251
165
218
251
165
218
0
0
0
0
3
157
0
1
127
128
10
170
187
225
123
128
224
13
74
49
151
80
0
28
157
0
28
157
0
0
0
252
251
212
252
251
212
0
0
0
0
3
157
0
1
127
128
10
170
187
224
135
92
225
1
110
240
67
174
255
102
240
255
102
240
0
0
0
254
115
141
254
115
141
0
0
0
0
3
157
0
1
127
128
10
170
187
224
13
74
224
13
74
214
131
226
254
253
20
254
253
20
0
0
0
0
14
222
0
14
222
0
0
0
0
3
157
0
1
127
128
10
170
187
223
25
38
224
13
74
220
182
204
255
103
227
255
103
227
0
0
0
1
208
131
1
208
131
0
0
0
0
3
157
0
1
127
128
10
170
187
222
37
2
225
1
110
225
1
110
0
103
121
0
103
121
0
0
0
3
186
254
3
186
254
0
0
0
0
3
157
0
1
127
128
10
170
187
224
135
92
224
135
92
223
25
38
0
213
159
0
213
159
0
0
0
5
207
23
5
207
23
0
0
0
0
3
157
0
1
127
128
10
170
187
224
135
92
222
37
2
225
1
110
0
74
221
0
74
221
0
0
0
8
10
48
8
10
48
0
0
0
0
3
157
0
1
127
128
10
170
187
222
159
20
225
1
110
226
111
164
255
135
92
255
135
92
0
0
0
10
100
168
10
100
168
0
0
0
0
3
157
0
1
127
128
10
170
187
225
1
110
225
123
128
224
13
74
255
53
88
255
53
88
0
0
0
12
208
192
12
208
192
0
0
0
0
3
157
0
1
127
128
10
170
187
224
135
92
224
135
92
225
1
110
255
40
242
255
40
242
0
0
0
15
58
59
15
58
59
0
0
0
0
3
157
0
1
127
128
10
170
187
224
13
74
224
13
74
224
13
74
255
2
83
255
2
83
0
0
0
17
135
3
17
135
3
0
0
0
0
3
157
0
1
127
128
10
170
187
224
135
92
223
25
38
224
13
74
254
253
20
254
253
20
0
0
0
19
152
199
19
152
199
0
0
0
0
3
157
0
1
127
128
10
170
187
222
159
20
222
37
2
225
1
110
255
141
143
255
141
143
0
0
0
21
79
116
21
79
116
0
0
0
0
3
157
0
1
127
128
10
170
187
222
159
20
224
135
92
224
135
92
0
122
18
0
122
18
0
0
0
22
140
58
22
140
58
0
0
0
0
3
157
0
1
127
128
10
170
187
224
135
92
224
135
92
222
37
2
1
5
78
1
5
78
0
0
0
23
52
151
23
52
151
0
0
0
0
3
157
0
1
127
128
10
170
187
224
13
74
222
159
20
225
1
110
0
193
31
0
193
31
0
0
0
23
53
10
23
53
10
0
0
0
0
3
157
0
1
127
128
10
170
187
223
25
38
225
1
110
225
123
128
255
238
91
255
238
91
0
0
0
22
130
244
22
130
244
0
0
0
0
3
157
0
1
127
128
10
170
187
224
13
74
224
135
92
224
135
92
255
65
68
255
65
68
0
0
0
21
29
109
21
29
109
0
0
0
0
3
157
0
1
127
128
10
170
187
223
25
38
224
13
74
224
13
74
255
46
171
255
46
171
0
0
0
19
13
24
19
13
24
0
0
0
0
3
157
0
1
127
128
10
170
187
222
37
2
224
135
92
223
25
38
255
133
238
255
133
238
0
0
0
16
99
4
16
99
4
0
0
0
0
3
157
0
1
127
128
10
170
187
223
147
56
222
159
20
222
37
2
255
218
207
255
218
207
0
0
0
13
54
249
13
54
249
0
0
0
0
3
157
0
1
127
128
10
170
187
224
135
92
222
159
20
224
135
92
0
10
3
0
10
3
0
0
0
9
165
149
9
165
149
0
0
0
0
3
157
0
1
127
128
10
170
187
222
159
20
224
135
92
224
135
92
0
44
211
0
44
211
0
0
0
5
206
130
5
206
130
0
0
0
0
3
157
0
1
127
128
10
170
187
224
13
74
224
13
74
222
159
20
0
54
92
0
54
92
0
0
0
1
211
3
1
211
3
0
0
0
0
3
157
0
1
127
128
10
170
187
224
13
74
223
25
38
225
1
110
255
253
36
255
253
36
0
0
0
253
212
229
253
212
229
0
0
0
0
3
157
0
1
127
128
10
170
187
222
37
2
224
13
74
224
135
92
255
152
135
255
152
135
0
0
0
249
245
178
249
245
178
0
0
0
0
3
157
0
1
127
128
10
170
187
223
25
38
223
25
38
224
13
74
255
80
134
255
80
134
0
0
0
246
86
2
246
86
2
0
0
0
0
3
157
0
1
127
128
10
170
187
224
13
74
222
37
2
224
135
92
255
87
51
255
87
51
0
0
0
243
20
158
243
20
158
0
0
0
0
3
157
0
1
127
128
10
170
187
221
170
240
223
147
56
222
159
20
255
157
197
255
157
197
0
0
0
240
77
82
240
77
82
0
0
0
0
3
157
0
1
127
128
10
170
187
221
170
240
224
135
92
222
159
20
255
200
176
255
200
176
0
0
0
238
23
112
238
23
112
0
0
0
0
3
157
0
1
127
128
10
170
187
221
170
240
222
159
20
224
135
92
255
163
126
255
163
126
0
0
0
236
132
28
236
132
28
0
0
0
0
3
157
0
1
127
128
10
170
187
219
72
150
224
13
74
224
13
74
255
107
58
255
107
58
0
0
0
235
156
168
235
156
168
0
0
0
0
3
157
0
1
127
128
10
170
187
221
170
240
224
13
74
223
25
38
255
56
175
255
56
175
0
0
0
235
97
89
235
97
89
0
0
0
0
3
157
0
1
127
128
10
170
187
221
170
240
222
37
2
224
13
74
254
203
3
254
203
3
0
0
0
235
200
239
235
200
239
0
0
0
0
3
157
0
1
127
128
10
170
187
220
60
186
223
25
38
223
25
38
254
48
254
254
48
254
0
0
0
236
193
16
236
193
16
0
0
0
0
3
157
0
1
127
128
10
170
187
221
48
222
224
13
74
222
37
2
253
222
5
253
222
5
0
0
0
238
47
197
238
47
197
0
0
0
0
3
157
0
1
127
128
10
170
187
221
170
240
221
170
240
223
147
56
253
248
185
253
248
185
0
0
0
239
245
194
239
245
194
0
0
0
0
3
157
0
1
127
128
10
170
187
220
182
204
221
170
240
224
135
92
254
50
229
254
50
229
0
0
0
241
241
79
241
241
79
0
0
0
0
3
157
0
1
127
128
10
170
187
224
135
92
221
170
240
222
159
20
254
105
66
254
105
66
0
0
0
244
1
66
244
1
66
0
0
0
0
3
157
0
1
127
128
10
170
187
225
1
110
219
72
150
224
13
74
254
216
214
254
216
214
0
0
0
246
7
207
246
7
207
0
0
0
0
3
157
0
1
127
128
10
170
187
223
147
56
221
170
240
224
13
74
255
146
84
255
146
84
0
0
0
247
236
163
247
236
163
0
0
0
0
3
157
0
1
127
128
10
170
187
227
99
200
221
170
240
222
37
2
0
103
244
0
103
244
0
0
0
249
158
44
249
158
44
0
0
0
0
3
157
0
1
127
128
10
170
187
228
87
236
220
60
186
223
25
38
1
82
142
1
82
142
0
0
0
251
17
247
251
17
247
0
0
0
0
3
157
0
1
127
128
10
170
187
228
87
236
221
48
222
224
13
74
2
79
72
2
79
72
0
0
0
252
68
47
252
68
47
0
0
0
0
3
157
0
1
127
128
10
170
187
229
198
34
221
170
240
221
170
240
3
69
206
3
69
206
0
0
0
253
54
131
253
54
131
0
0
0
0
3
157
0
1
127
128
10
170
187
232
40
124
220
182
204
221
170
240
4
70
88
4
70
88
0
0
0
253
238
158
253
238
158
0
0
0
0
3
157
0
1
127
128
10
170
187
230
186
70
224
135
92
221
170
240
5
88
133
5
88
133
0
0
0
254
116
149
254
116
149
0
0
0
0
3
157
0
1
127
128
10
170
187
232
162
142
225
1
110
219
72
150
6
49
123
6
49
123
0
0
0
254
209
111
254
209
111
0
0
0
0
3
157
0
1
127
128
10
170
187
232
162
142
223
147
56
221
170
240
6
146
194
6
146
194
0
0
0
255
13
254
255
13
254
0
0
0
0
3
157
0
1
127
128
10
170
187
231
174
106
227
99
200
221
170
240
6
178
59
6
178
59
0
0
0
255
50
18
255
50
18
0
0
0
0
3
157
0
1
127
128
10
170
187
233
28
160
228
87
236
220
60
186
6
195
101
6
195
101
0
0
0
255
68
21
255
68
21
0
0
0
0
3
157
0
1
127
128
10
170
187
231
174
106
228
87
236
221
48
222
6
135
80
6
135
80
0
0
0
255
72
243
255
72
243
0
0
0
0
3
157
0
1
127
128
10
170
187
231
174
106
229
198
34
221
170
240
5
210
152
5
210
152
0
0
0
255
68
66
255
68
66
0
0
0
0
3
157
0
1
127
128
10
170
187
232
40
124
232
40
124
220
182
204
4
206
62
4
206
62
0
0
0
255
56
137
255
56
137
0
0
0
0
3
157
0
1
127
128
10
170
187
231
52
88
230
186
70
224
135
92
3
144
49
3
144
49
0
0
0
255
39
159
255
39
159
0
0
0
0
3
157
0
1
127
128
10
170
187
230
186
70
232
162
142
225
1
110
2
47
206
2
47
206
0
0
0
255
18
246
255
18
246
0
0
0
0
3
157
0
1
127
128
10
170
187
230
186
70
232
162
142
223
147
56
0
254
39
0
254
39
0
0
0
254
251
237
254
251
237
0
0
0
0
3
157
0
1
127
128
10
170
187
229
198
34
231
174
106
227
99
200
0
20
129
0
20
129
0
0
0
254
228
7
254
228
7
0
0
0
0
3
157
0
1
127
128
10
170
187
228
87
236
233
28
160
228
87
236
255
69
143
255
69
143
0
0
0
254
205
7
254
205
7
0
0
0
0
3
157
0
1
127
128
10
170
187
230
64
52
231
174
106
228
87
236
254
176
78
254
176
78
0
0
0
254
185
6
254
185
6
0
0
0
0
3
157
0
1
127
128
10
170
187
229
76
16
231
174
106
229
198
34
254
113
215
254
113
215
0
0
0
254
170
111
254
170
111
0
0
0
0
3
157
0
1
127
128
10
170
187
228
209
254
232
40
124
232
40
124
254
54
183
254
54
183
0
0
0
254
163
245
254
163
245
0
0
0
0
3
157
0
1
127
128
10
170
187
229
198
34
231
52
88
230
186
70
253
222
250
253
222
250
0
0
0
254
168
114
254
168
114
0
0
0
0
3
157
0
1
127
128
10
170
187
230
64
52
230
186
70
232
162
142
253
205
85
253
205
85
0
0
0
254
186
197
254
186
197
0
0
0
0
3
157
0
1
127
128
10
170
187
228
87
236
230
186
70
232
162
142
254
37
18
254
37
18
0
0
0
254
221
165
254
221
165
0
0
0
0
3
157
0
1
127
128
10
170
187
229
198
34
229
198
34
231
174
106
254
135
199
254
135
199
0
0
0
255
19
113
255
19
113
0
0
0
0
3
157
0
1
127
128
10
170
187
229
76
16
228
87
236
233
28
160
254
214
238
254
214
238
0
0
0
255
93
255
255
93
255
0
0
0
0
3
157
0
1
127
128
10
170
187
227
99
200
230
64
52
231
174
106
255
62
103
255
62
103
0
0
0
255
190
106
255
190
106
0
0
0
0
3
157
0
1
127
128
10
170
187
227
221
218
229
76
16
231
174
106
255
147
72
255
147
72
0
0
0
0
52
231
0
52
231
0
0
0
0
3
157
0
1
127
128
10
170
187
226
111
164
228
209
254
232
40
124
255
138
57
255
138
57
0
0
0
0
192
168
0
192
168
0
0
0
0
3
157
0
1
127
128
10
170
187
226
233
182
229
198
34
231
52
88
255
47
37
255
47
37
0
0
0
1
95
194
1
95
194
0
0
0
0
3
157
0
1
127
128
10
170
187
228
209
254
230
64
52
230
186
70
254
176
201
254
176
201
0
0
0
2
15
43
2
15
43
0
0
0
0
3
157
0
1
127
128
10
170
187
228
87
236
228
87
236
230
186
70
254
28
247
254
28
247
0
0
0
2
202
198
2
202
198
0
0
0
0
3
157
0
1
127
128
10
170
187
226
111
164
229
198
34
229
198
34
253
156
178
253
156
178
0
0
0
3
141
132
3
141
132
0
0
0
0
3
157
0
1
127
128
10
170
187
227
221
218
229
76
16
228
87
236
253
149
139
253
149
139
0
0
0
4
81
142
4
81
142
0
0
0
0
3
157
0
1
127
128
10
170
187
226
233
182
227
99
200
230
64
52
254
41
92
254
41
92
0
0
0
5
16
134
5
16
134
0
0
0
0
3
157
0
1
127
128
10
170
187
225
1
110
227
221
218
229
76
16
254
243
138
254
243
138
0
0
0
5
195
214
5
195
214
0
0
0
0
3
157
0
1
127
128
10
170
187
227
99
200
226
111
164
228
209
254
255
146
205
255
146
205
0
0
0
6
100
253
6
100
253
0
0
0
0
3
157
0
1
127
128
10
170
187
226
111
164
226
233
182
229
198
34
255
246
241
255
246
241
0
0
0
6
237
230
6
237
230
0
0
0
0
3
157
0
1
127
128
10
170
187
224
135
92
228
209
254
230
64
52
0
15
66
0
15
66
0
0
0
7
89
61
7
89
61
0
0
0
0
3
157
0
1
127
128
10
170
187
227
99
200
228
87
236
228
87
236
255
191
38
255
191
38
0
0
0
7
162
178
7
162
178
0
0
0
0
3
157
0
1
127
128
10
170
187
226
111
164
226
111
164
229
198
34
255
48
26
255
48
26
0
0
0
7
199
55
7
199
55
0
0
0
0
3
157
0
1
127
128
10
170
187
224
135
92
227
221
218
229
76
16
254
172
249
254
172
249
0
0
0
7
197
43
7
197
43
0
0
0
0
3
157
0
1
127
128
10
170
187
225
245
146
226
233
182
227
99
200
254
89
12
254
89
12
0
0
0
7
156
103
7
156
103
0
0
0
0
3
157
0
1
127
128
10
170
187
226
233
182
225
1
110
227
221
218
254
94
74
254
94
74
0
0
0
7
78
66
7
78
66
0
0
0
0
3
157
0
1
127
128
10
170
187
226
111
164
227
99
200
226
111
164
254
192
11
254
192
11
0
0
0
6
221
121
6
221
121
0
0
0
0
3
157
0
1
127
128
10
170
187
226
233
182
226
111
164
226
233
182
255
18
15
255
18
15
0
0
0
6
78
2
6
78
2
0
0
0
0
3
157
0
1
127
128
10
170
187
227
99
200
224
135
92
228
209
254
255
30
239
255
30
239
0
0
0
5
164
216
5
164
216
0
0
0
0
3
157
0
1
127
128
10
170
187
226
233
182
227
99
200
228
87
236
255
95
200
255
95
200
0
0
0
4
231
173
4
231
173
0
0
0
0
3
157
0
1
127
128
10
170
187
228
87
236
226
111
164
226
111
164
0
28
156
0
28
156
0
0
0
4
28
167
4
28
167
0
0
0
0
3
157
0
1
127
128
10
170
187
227
221
218
224
135
92
227
221
218
0
206
243
0
206
243
0
0
0
3
74
14
3
74
14
0
0
0
0
3
157
0
1
127
128
10
170
187
225
245
146
225
245
146
226
233
182
1
32
3
1
32
3
0
0
0
2
118
6
2
118
6
0
0
0
0
3
157
0
1
127
128
10
170
187
227
221
218
226
233
182
225
1
110
1
108
200
1
108
200
0
0
0
1
166
70
1
166
70
0
0
0
0
3
157
0
1
127
128
10
170
187
229
76
16
226
111
164
227
99
200
1
202
184
1
202
184
0
0
0
0
223
228
0
223
228
0
0
0
0
3
157
0
1
127
128
10
170
187
229
198
34
226
233
182
226
111
164
1
190
82
1
190
82
0
0
0
0
39
40
0
39
40
0
0
0
0
3
157
0
1
127
128
10
170
187
230
64
52
227
99
200
224
135
92
1
32
3
1
32
3
0
0
0
255
127
103
255
127
103
0
0
0
0
3
157
0
1
127
128
10
170
187
232
40
124
226
233
182
227
99
200
0
143
135
0
143
135
0
0
0
254
234
253
254
234
253
0
0
0
0
3
157
0
1
127
128
10
170
187
234
138
214
228
87
236
226
111
164
0
189
200
0
189
200
0
0
0
254
107
65
254
107
65
0
0
0
0
3
157
0
0
238
160
10
170
187
236
115
30
227
221
218
224
135
92
1
139
76
1
139
76
0
0
0
254
0
152
254
0
152
0
0
0
0
3
157
0
0
238
128
10
170
187
236
115
30
225
245
146
225
245
146
2
95
247
2
95
247
0
0
0
253
170
141
253
170
141
0
0
0
0
3
157
0
0
238
128
10
170
187
234
16
196
227
221
218
226
233
182
3
65
252
3
65
252
0
0
0
253
103
245
253
103
245
0
0
0
0
3
157
0
0
238
128
10
170
187
234
138
214
229
76
16
226
111
164
4
183
211
4
183
211
0
0
0
253
55
29
253
55
29
0
0
0
0
3
157
0
0
238
128
10
170
187
234
138
214
229
198
34
226
233
182
6
114
207
6
114
207
0
0
0
253
21
252
253
21
252
0
0
0
0
3
157
0
0
238
128
10
170
187
233
150
178
230
64
52
227
99
200
7
65
193
7
65
193
0
0
0
253
2
104
253
2
104
0
0
0
0
3
157
0
0
238
128
10
170
187
233
150
178
232
40
124
226
233
182
6
162
4
6
162
4
0
0
0
252
250
71
252
250
71
0
0
0
0
3
157
0
0
238
128
10
170
187
235
249
12
234
138
214
228
87
236
5
61
210
5
61
210
0
0
0
252
251
178
252
251
178
0
0
0
0
3
157
0
0
238
128
10
170
187
232
162
142
236
115
30
227
221
218
3
179
244
3
179
244
0
0
0
253
5
29
253
5
29
0
0
0
0
3
157
0
0
238
128
10
170
187
228
209
254
236
115
30
225
245
146
1
244
52
1
244
52
0
0
0
253
21
97
253
21
97
0
0
0
0
3
157
0
0
238
128
10
170
187
226
111
164
234
16
196
227
221
218
0
37
172
0
37
172
0
0
0
253
43
198
253
43
198
0
0
0
0
3
157
0
0
238
128
10
170
187
224
135
92
234
138
214
229
76
16
254
248
202
254
248
202
0
0
0
253
71
246
253
71
246
0
0
0
0
3
157
0
0
238
128
10
170
187
225
245
146
234
138
214
229
198
34
254
66
41
254
66
41
0
0
0
253
105
239
253
105
239
0
0
0
0
3
157
0
0
238
128
10
170
187
225
245
146
233
150
178
230
64
52
252
212
108
252
212
108
0
0
0
253
145
245
253
145
245
0
0
0
0
3
157
0
0
238
128
10
170
187
223
147
56
233
150
178
232
40
124
250
136
246
250
136
246
0
0
0
253
192
110
253
192
110
0
0
0
0
3
157
0
0
238
128
10
170
187
223
147
56
235
249
12
234
138
214
248
143
254
248
143
254
0
0
0
253
245
221
253
245
221
0
0
0
0
3
157
0
0
238
128
10
170
187
222
159
20
232
162
142
236
115
30
247
139
163
247
139
163
0
0
0
254
50
201
254
50
201
0
0
0
0
3
157
0
0
238
128
10
170
187
222
37
2
228
209
254
236
115
30
247
17
145
247
17
145
0
0
0
254
119
184
254
119
184
0
0
0
0
3
157
0
0
238
128
10
170
187
224
13
74
226
111
164
234
16
196
247
21
219
247
21
219
0
0
0
254
197
38
254
197
38
0
0
0
0
3
157
0
0
238
128
10
170
187
225
123
128
224
135
92
234
138
214
248
58
163
248
58
163
0
0
0
255
27
121
255
27
121
0
0
0
0
3
157
0
0
238
128
10
170
187
222
37
2
225
245
146
234
138
214
250
93
145
250
93
145
0
0
0
255
122
254
255
122
254
0
0
0
0
3
157
0
0
238
128
10
170
187
224
135
92
225
245
146
233
150
178
252
116
26
252
116
26
0
0
0
255
227
207
255
227
207
0
0
0
0
3
157
0
0
238
128
10
170
187
224
135
92
223
147
56
233
150
178
253
215
210
253
215
210
0
0
0
0
85
187
0
85
187
0
0
0
0
3
157
0
0
238
128
10
170
187
221
48
222
223
147
56
235
249
12
254
145
79
254
145
79
0
0
0
0
208
41
0
208
41
0
0
0
0
3
157
0
0
238
128
10
170
187
219
194
168
222
159
20
232
162
142
255
0
229
255
0
229
0
0
0
1
81
240
1
81
240
0
0
0
0
3
157
0
0
238
128
10
170
187
213
143
190
222
37
2
228
209
254
255
153
1
255
153
1
0
0
0
1
217
52
1
217
52
0
0
0
0
3
157
0
0
238
128
10
170
187
207
92
212
224
13
74
226
111
164
0
49
151
0
49
151
0
0
0
2
99
79
2
99
79
0
0
0
0
3
157
0
0
238
128
10
170
187
209
218
79
225
123
128
224
135
92
255
216
230
255
216
230
0
0
0
2
236
196
2
236
196
0
0
0
0
3
157
0
0
238
128
10
170
187
214
213
68
222
37
2
225
245
146
253
192
117
253
192
117
0
0
0
3
113
72
3
113
72
0
0
0
0
3
157
0
0
238
128
10
170
187
219
208
57
224
135
92
225
245
146
250
12
35
250
12
35
0
0
0
3
235
219
3
235
219
0
0
0
0
3
157
0
0
238
128
10
170
187
224
203
46
224
135
92
223
147
56
245
243
200
245
243
200
0
0
0
4
87
3
4
87
3
0
0
0
0
3
157
0
0
238
128
10
170
187
229
198
34
221
48
222
223
147
56
243
99
99
243
99
99
0
0
0
4
173
16
4
173
16
0
0
0
0
3
157
0
0
238
128
10
170
187
228
209
254
219
194
168
222
159
20
243
248
151
243
248
151
0
0
0
4
232
112
4
232
112
0
0
0
0
3
157
0
0
238
128
10
170
187
228
87
236
213
143
190
222
37
2
247
254
61
247
254
61
0
0
0
5
4
13
5
4
13
0
0
0
0
3
157
0
0
238
128
10
170
187
229
76
16
207
92
212
224
13
74
254
134
252
254
134
252
0
0
0
4
251
164
4
251
164
0
0
0
0
3
157
0
0
238
128
10
170
187
227
99
200
209
218
79
225
123
128
6
58
85
6
58
85
0
0
0
4
204
29
4
204
29
0
0
0
0
3
157
0
0
238
128
10
170
187
225
123
128
214
213
68
222
37
2
13
41
166
13
41
166
0
0
0
4
115
197
4
115
197
0
0
0
0
3
157
0
0
238
128
10
170
187
221
170
240
219
208
57
224
135
92
16
234
217
16
234
217
0
0
0
3
242
124
3
242
124
0
0
0
0
3
157
0
0
238
128
10
170
187
219
72
150
224
203
46
224
135
92
16
112
225
16
112
225
0
0
0
3
73
205
3
73
205
0
0
0
0
3
157
0
0
238
128
10
170
187
212
155
154
229
198
34
221
48
222
12
170
85
12
170
85
0
0
0
2
124
224
2
124
224
0
0
0
0
3
157
0
0
238
128
10
170
187
209
191
46
228
209
254
219
194
168
6
244
89
6
244
89
0
0
0
1
144
85
1
144
85
0
0
0
0
3
157
0
0
238
128
10
170
187
224
135
92
228
87
236
213
143
190
0
125
9
0
125
9
0
0
0
0
138
21
0
138
21
0
0
0
0
3
157
0
0
238
128
10
170
187
249
83
4
229
76
16
207
92
212
250
144
110
250
144
110
0
0
0
255
112
250
255
112
250
0
0
0
0
3
157
0
0
238
128
10
170
187
35
195
70
227
99
200
209
218
79
245
237
0
245
237
0
0
0
0
254
76
122
254
76
122
0
0
0
0
3
157
0
0
238
128
10
170
187
74
98
248
225
123
128
214
213
68
243
127
39
243
127
39
0
0
0
253
36
82
253
36
82
0
0
0
0
3
157
0
0
238
128
10
170
187
72
244
194
221
170
240
219
208
57
246
231
155
246
231
155
0
0
0
252
0
38
252
0
38
0
0
0
0
3
157
0
0
238
128
10
170
187
16
54
100
219
72
150
224
203
46
5
79
241
5
79
241
0
0
0
250
231
63
250
231
63
0
0
0
0
3
157
0
0
238
128
10
170
187
221
48
222
212
155
154
229
198
34
32
119
70
32
119
70
0
0
0
249
224
82
249
224
82
0
0
0
0
3
157
0
0
238
128
10
170
187
215
120
6
209
191
46
228
209
254
66
6
114
66
6
114
0
0
0
248
241
101
248
241
101
0
0
0
0
3
157
0
0
238
128
10
170
187
224
135
92
224
135
92
228
87
236
89
244
96
89
244
96
0
0
0
248
31
188
248
31
188
0
0
0
0
3
157
0
0
238
128
10
170
187
224
13
74
249
83
4
229
76
16
86
228
238
86
228
238
0
0
0
247
111
230
247
111
230
0
0
0
0
3
157
0
0
238
128
10
170
187
224
135
92
35
195
70
227
99
200
54
189
196
54
189
196
0
0
0
246
229
188
246
229
188
0
0
0
0
3
157
0
0
238
128
10
170
187
225
245
146
74
98
248
225
123
128
9
200
89
9
200
89
0
0
0
246
132
107
246
132
107
0
0
0
0
3
157
0
0
238
128
10
170
187
225
123
128
72
244
194
221
170
240
224
23
77
224
23
77
0
0
0
246
78
116
246
78
116
0
0
0
0
3
157
0
0
238
128
10
170
187
223
147
56
16
54
100
219
72
150
190
162
213
190
162
213
0
0
0
246
69
157
246
69
157
0
0
0
0
3
157
0
0
238
128
10
170
187
223
25
38
221
48
222
212
155
154
171
150
177
171
150
177
0
0
0
246
106
233
246
106
233
0
0
0
0
3
157
0
0
238
128
10
170
187
224
135
92
215
120
6
209
191
46
178
16
47
178
16
47
0
0
0
246
190
146
246
190
146
0
0
0
0
3
157
0
0
238
128
10
170
187
224
135
92
224
135
92
224
135
92
207
164
91
207
164
91
0
0
0
247
64
14
247
64
14
0
0
0
0
3
157
0
0
238
128
10
170
187
224
135
92
224
13
74
249
83
4
239
40
113
239
40
113
0
0
0
247
238
73
247
238
73
0
0
0
0
3
157
0
0
238
128
10
170
187
223
25
38
224
135
92
35
195
70
255
78
36
255
78
36
0
0
0
248
199
239
248
199
239
0
0
0
0
3
157
0
0
238
128
10
170
187
224
13
74
225
245
146
74
98
248
1
230
96
1
230
96
0
0
0
249
203
216
249
203
216
0
0
0
0
3
115
0
0
238
128
10
170
187
226
233
182
225
123
128
72
244
194
0
161
166
0
161
166
0
0
0
250
249
132
250
249
132
0
0
0
0
3
115
0
0
238
128
10
170
187
225
123
128
223
147
56
16
54
100
255
187
85
255
187
85
0
0
0
252
81
118
252
81
118
0
0
0
0
3
115
0
0
238
128
10
170
187
223
147
56
223
25
38
221
48
222
255
31
227
255
31
227
0
0
0
253
213
71
253
213
71
0
0
0
0
3
115
0
0
238
128
10
170
187
223
147
56
224
135
92
215
120
6
255
18
15
255
18
15
0
0
0
255
135
98
255
135
98
0
0
0
0
3
115
0
0
238
128
10
170
187
222
37
2
224
135
92
224
135
92
255
231
175
255
231
175
0
0
0
1
106
61
1
106
61
0
0
0
0
3
115
0
0
238
128
10
170
187
223
147
56
224
135
92
224
13
74
0
193
152
0
193
152
0
0
0
3
127
30
3
127
30
0
0
0
0
3
115
0
0
238
128
10
170
187
224
135
92
223
25
38
224
135
92
0
166
106
0
166
106
0
0
0
5
196
138
5
196
138
0
0
0
0
3
115
0
0
238
128
10
170
187
223
147
56
224
13
74
225
245
146
255
223
147
255
223
147
0
0
0
8
52
167
8
52
167
0
0
0
0
3
115
0
0
238
128
10
170
187
225
1
110
226
233
182
225
123
128
255
79
23
255
79
23
0
0
0
10
195
216
10
195
216
0
0
0
0
3
115
0
0
238
128
10
170
187
224
135
92
225
123
128
223
147
56
255
47
158
255
47
158
0
0
0
13
95
241
13
95
241
0
0
0
0
3
115
0
0
238
128
10
170
187
224
13
74
223
147
56
223
25
38
255
25
53
255
25
53
0
0
0
15
240
73
15
240
73
0
0
0
0
3
115
0
0
238
128
10
170
187
223
147
56
223
147
56
224
135
92
254
240
174
254
240
174
0
0
0
18
86
215
18
86
215
0
0
0
0
3
115
0
0
238
128
10
170
187
223
147
56
222
37
2
224
135
92
255
49
14
255
49
14
0
0
0
20
114
75
20
114
75
0
0
0
0
3
115
0
0
238
128
10
170
187
222
37
2
223
147
56
224
135
92
0
5
63
0
5
63
0
0
0
22
32
218
22
32
218
0
0
0
0
3
115
0
0
238
128
10
170
187
223
25
38
224
135
92
223
25
38
0
214
148
0
214
148
0
0
0
23
67
129
23
67
129
0
0
0
0
3
115
0
0
238
128
10
170
187
225
123
128
223
147
56
224
13
74
0
252
64
0
252
64
0
0
0
23
193
18
23
193
18
0
0
0
0
3
115
0
0
238
128
10
170
187
224
135
92
225
1
110
226
233
182
0
94
228
0
94
228
0
0
0
23
136
180
23
136
180
0
0
0
0
3
115
0
0
238
128
10
170
187
224
135
92
224
135
92
225
123
128
255
137
69
255
137
69
0
0
0
22
147
116
22
147
116
0
0
0
0
3
115
0
0
238
128
10
170
187
224
13
74
224
13
74
223
147
56
255
36
45
255
36
45
0
0
0
20
228
186
20
228
186
0
0
0
0
3
115
0
0
238
128
10
170
187
223
25
38
223
147
56
223
147
56
255
82
233
255
82
233
0
0
0
18
137
167
18
137
167
0
0
0
0
3
115
0
0
238
128
10
170
187
223
147
56
223
147
56
222
37
2
255
181
157
255
181
157
0
0
0
15
151
161
15
151
161
0
0
0
0
3
115
0
0
238
128
10
170
187
224
13
74
222
37
2
223
147
56
255
246
240
255
246
240
0
0
0
12
42
93
12
42
93
0
0
0
0
3
115
0
0
238
128
10
170
187
222
159
20
223
25
38
224
135
92
0
28
34
0
28
34
0
0
0
8
97
225
8
97
225
0
0
0
0
3
115
0
0
238
128
10
170
187
223
25
38
225
123
128
223
147
56
0
54
214
0
54
214
0
0
0
4
96
163
4
96
163
0
0
0
0
3
115
0
0
238
128
10
170
187
224
13
74
224
135
92
225
1
110
0
34
208
0
34
208
0
0
0
0
74
29
0
74
29
0
0
0
0
3
115
0
0
238
128
10
170
187
222
159
20
224
135
92
224
135
92
255
205
116
255
205
116
0
0
0
252
65
180
252
65
180
0
0
0
0
3
115
0
0
238
128
10
170
187
222
37
2
224
13
74
224
13
74
255
108
46
255
108
46
0
0
0
248
105
231
248
105
231
0
0
0
0
3
115
0
0
238
128
10
170
187
223
25
38
223
25
38
223
147
56
255
71
119
255
71
119
0
0
0
244
227
116
244
227
116
0
0
0
0
3
115
0
0
238
128
10
170
187
222
159
20
223
147
56
223
147
56
255
119
160
255
119
160
0
0
0
241
204
93
241
204
93
0
0
0
0
3
115
0
0
238
128
10
170
187
221
170
240
224
13
74
222
37
2
255
189
184
255
189
184
0
0
0
239
62
150
239
62
150
0
0
0
0
3
115
0
0
238
128
10
170
187
221
48
222
222
159
20
223
25
38
255
189
184
255
189
184
0
0
0
237
78
119
237
78
119
0
0
0
0
3
115
0
0
238
128
10
170
187
220
182
204
223
25
38
225
123
128
255
132
128
255
132
128
0
0
0
236
9
30
236
9
30
0
0
0
0
3
115
0
0
238
128
10
170
187
220
182
204
224
13
74
224
135
92
255
84
209
255
84
209
0
0
0
235
115
16
235
115
16
0
0
0
0
3
115
0
0
238
128
10
170
187
222
37
2
222
159
20
224
135
92
255
12
208
255
12
208
0
0
0
235
135
94
235
135
94
0
0
0
0
3
115
0
0
238
128
10
170
187
220
60
186
222
37
2
224
13
74
254
124
208
254
124
208
0
0
0
236
55
179
236
55
179
0
0
0
0
3
115
0
0
238
128
10
170
187
221
48
222
223
25
38
223
25
38
253
247
197
253
247
197
0
0
0
237
109
77
237
109
77
0
0
0
0
3
115
0
0
238
128
10
170
187
221
170
240
222
159
20
223
147
56
253
225
92
253
225
92
0
0
0
239
10
234
239
10
234
0
0
0
0
3
115
0
0
238
128
10
170
187
221
48
222
221
170
240
224
13
74
254
23
184
254
23
184
0
0
0
240
239
115
240
239
115
0
0
0
0
3
115
0
0
238
128
10
170
187
222
37
2
221
48
222
222
159
20
254
75
178
254
75
178
0
0
0
242
248
238
242
248
238
0
0
0
0
3
115
0
0
238
128
10
170
187
225
1
110
220
182
204
223
25
38
254
149
155
254
149
155
0
0
0
245
7
122
245
7
122
0
0
0
0
3
115
0
0
238
128
10
170
187
224
13
74
220
182
204
224
13
74
255
47
37
255
47
37
0
0
0
246
255
190
246
255
190
0
0
0
0
3
115
0
0
238
128
10
170
187
225
245
146
222
37
2
222
159
20
255
252
48
255
252
48
0
0
0
248
204
166
248
204
166
0
0
0
0
3
115
0
0
238
128
10
170
187
227
99
200
220
60
186
222
37
2
0
217
234
0
217
234
0
0
0
250
96
44
250
96
44
0
0
0
0
3
115
0
0
238
128
10
170
187
227
221
218
221
48
222
223
25
38
1
207
124
1
207
124
0
0
0
251
179
72
251
179
72
0
0
0
0
3
115
0
0
238
128
10
170
187
228
209
254
221
170
240
222
159
20
2
203
65
2
203
65
0
0
0
252
197
14
252
197
14
0
0
0
0
3
115
0
0
238
128
10
170
187
231
174
106
221
48
222
221
170
240
3
195
176
3
195
176
0
0
0
253
153
96
253
153
96
0
0
0
0
3
115
0
0
238
128
10
170
187
232
40
124
222
37
2
221
48
222
4
208
159
4
208
159
0
0
0
254
55
79
254
55
79
0
0
0
0
3
115
0
0
238
128
10
170
187
231
174
106
225
1
110
220
182
204
5
209
163
5
209
163
0
0
0
254
167
149
254
167
149
0
0
0
0
3
115
0
0
238
128
10
170
187
234
16
196
224
13
74
220
182
204
6
111
121
6
111
121
0
0
0
254
243
59
254
243
59
0
0
0
0
3
115
0
0
238
128
10
170
187
232
162
142
225
245
146
222
37
2
6
165
91
6
165
91
0
0
0
255
34
168
255
34
168
0
0
0
0
3
115
0
0
238
128
10
170
187
231
174
106
227
99
200
220
60
186
6
191
149
6
191
149
0
0
0
255
60
255
255
60
255
0
0
0
0
3
115
0
0
238
128
10
170
187
232
40
124
227
221
218
221
48
222
6
179
169
6
179
169
0
0
0
255
71
232
255
71
232
0
0
0
0
3
115
0
0
238
128
10
170
187
232
162
142
228
209
254
221
170
240
6
57
29
6
57
29
0
0
0
255
71
158
255
71
158
0
0
0
0
3
115
0
0
238
128
10
170
187
232
40
124
231
174
106
221
48
222
5
89
0
5
89
0
0
0
0
255
63
38
255
63
38
0
0
0
0
3
115
0
0
238
128
10
170
187
230
186
70
232
40
124
222
37
2
4
55
143
4
55
143
0
0
0
255
48
162
255
48
162
0
0
0
0
3
115
0
0
238
128
10
170
187
231
52
88
231
174
106
225
1
110
2
222
84
2
222
84
0
0
0
255
29
172
255
29
172
0
0
0
0
3
115
0
0
238
128
10
170
187
230
64
52
234
16
196
224
13
74
1
139
198
1
139
198
0
0
0
255
7
167
255
7
167
0
0
0
0
3
115
0
0
238
128
10
170
187
231
52
88
232
162
142
225
245
146
0
133
10
0
133
10
0
0
0
254
239
252
254
239
252
0
0
0
0
3
115
0
0
238
128
10
170
187
229
76
16
231
174
106
227
99
200
255
170
166
255
170
166
0
0
0
254
216
75
254
216
75
0
0
0
0
3
115
0
0
238
128
10
170
187
229
198
34
232
40
124
227
221
218
254
237
210
254
237
210
0
0
0
254
194
130
254
194
130
0
0
0
0
3
115
0
0
238
128
10
170
187
231
52
88
232
162
142
228
209
254
254
137
53
254
137
53
0
0
0
254
176
227
254
176
227
0
0
0
0
3
115
0
0
238
128
10
170
187
229
76
16
232
40
124
231
174
106
254
90
244
254
90
244
0
0
0
254
166
1
254
166
1
0
0
0
0
3
115
0
0
238
128
10
170
187
229
198
34
230
186
70
232
40
124
254
10
94
254
10
94
0
0
0
254
164
167
254
164
167
0
0
0
0
3
115
0
0
238
128
10
170
187
230
186
70
231
52
88
231
174
106
253
197
180
253
197
180
0
0
0
254
175
179
254
175
179
0
0
0
0
3
115
0
0
238
128
10
170
187
228
209
254
230
64
52
234
16
196
253
240
158
253
240
158
0
0
0
254
201
251
254
201
251
0
0
0
0
3
115
0
0
238
128
10
170
187
229
76
16
231
52
88
232
162
142
254
91
110
254
91
110
0
0
0
254
246
11
254
246
11
0
0
0
0
3
115
0
0
238
128
10
170
187
228
209
254
229
76
16
231
174
106
254
174
102
254
174
102
0
0
0
255
54
9
255
54
9
0
0
0
0
3
115
0
0
238
128
10
170
187
227
99
200
229
198
34
232
40
124
255
7
146
255
7
146
0
0
0
255
139
112
255
139
112
0
0
0
0
3
115
0
0
238
128
10
170
187
226
233
182
231
52
88
232
162
142
255
112
243
255
112
243
0
0
0
255
246
238
255
246
238
0
0
0
0
3
115
0
0
238
128
10
170
187
227
99
200
229
76
16
232
40
124
255
155
221
255
155
221
0
0
0
0
120
56
0
120
56
0
0
0
0
3
115
0
0
238
128
10
170
187
226
111
164
229
198
34
230
186
70
255
100
19
255
100
19
0
0
0
1
13
244
1
13
244
0
0
0
0
3
115
0
0
238
128
10
170
187
227
221
218
230
186
70
231
52
88
254
242
150
254
242
150
0
0
0
1
181
168
1
181
168
0
0
0
0
3
115
0
0
238
128
10
170
187
228
209
254
228
209
254
230
64
52
254
104
78
254
104
78
0
0
0
2
107
189
2
107
189
0
0
0
0
3
115
0
0
238
128
10
170
187
227
221
218
229
76
16
231
52
88
253
212
124
253
212
124
0
0
0
3
43
154
3
43
154
0
0
0
0
3
115
0
0
238
128
10
170
187
228
87
236
228
209
254
229
76
16
253
132
219
253
132
219
0
0
0
3
239
195
3
239
195
0
0
0
0
3
115
0
0
238
128
10
170
187
227
99
200
227
99
200
229
198
34
253
208
171
253
208
171
0
0
0
4
178
20
4
178
20
0
0
0
0
3
115
0
0
238
128
10
170
187
226
111
164
226
233
182
231
52
88
254
142
238
254
142
238
0
0
0
5
108
13
5
108
13
0
0
0
0
3
115
0
0
238
128
10
170
187
226
111
164
227
99
200
229
76
16
255
74
83
255
74
83
0
0
0
6
23
20
6
23
20
0
0
0
0
3
115
0
0
238
128
10
170
187
228
87
236
226
111
164
229
198
34
255
205
117
255
205
117
0
0
0
6
172
212
6
172
212
0
0
0
0
3
115
0
0
238
128
10
170
187
225
1
110
227
221
218
230
186
70
0
15
188
0
15
188
0
0
0
7
39
145
7
39
145
0
0
0
0
3
115
0
0
238
128
10
170
187
225
245
146
228
209
254
228
209
254
255
242
166
255
242
166
0
0
0
7
130
108
7
130
108
0
0
0
0
3
115
0
0
238
128
10
170
187
226
233
182
227
221
218
229
76
16
255
121
137
255
121
137
0
0
0
7
185
182
7
185
182
0
0
0
0
3
115
0
0
238
128
10
170
187
225
123
128
228
87
236
228
209
254
254
234
245
254
234
245
0
0
0
7
203
14
7
203
14
0
0
0
0
3
115
0
0
238
128
10
170
187
225
1
110
227
99
200
227
99
200
254
123
219
254
123
219
0
0
0
7
181
146
7
181
146
0
0
0
0
3
115
0
0
238
128
10
170
187
226
111
164
226
111
164
226
233
182
254
77
32
254
77
32
0
0
0
7
121
220
7
121
220
0
0
0
0
3
115
0
0
238
128
10
170
187
226
233
182
226
111
164
227
99
200
254
135
199
254
135
199
0
0
0
7
25
249
7
25
249
0
0
0
0
3
115
0
0
238
128
10
170
187
227
99
200
228
87
236
226
111
164
254
243
16
254
243
16
0
0
0
6
153
73
6
153
73
0
0
0
0
3
115
0
0
238
128
10
170
187
228
87
236
225
1
110
227
221
218
255
29
6
255
29
6
0
0
0
5
252
76
5
252
76
0
0
0
0
3
115
0
0
238
128
10
170
187
227
99
200
225
245
146
228
209
254
255
47
37
255
47
37
0
0
0
5
72
98
5
72
98
0
0
0
0
3
115
0
0
238
128
10
170
187
226
233
182
226
233
182
227
221
218
255
179
59
255
179
59
0
0
0
4
131
129
4
131
129
0
0
0
0
3
115
0
0
238
128
10
170
187
229
76
16
225
123
128
228
87
236
0
129
56
0
129
56
0
0
0
3
179
233
3
179
233
0
0
0
0
3
115
0
0
238
128
10
170
187
226
233
182
225
1
110
227
99
200
1
0
137
1
0
137
0
0
0
2
223
218
2
223
218
0
0
0
0
3
115
0
0
238
128
10
170
187
226
233
182
226
111
164
226
111
164
1
65
221
1
65
221
0
0
0
2
13
71
2
13
71
0
0
0
0
3
115
0
0
238
128
10
170
187
228
87
236
226
233
182
226
111
164
1
159
83
1
159
83
0
0
0
1
65
159
1
65
159
0
0
0
0
3
115
0
0
238
128
10
170
187
230
64
52
227
99
200
228
87
236
1
216
18
1
216
18
0
0
0
0
129
150
0
129
150
0
0
0
0
3
115
0
0
238
128
10
170
187
229
198
34
228
87
236
225
1
110
1
124
10
1
124
10
0
0
0
255
208
252
255
208
252
0
0
0
0
3
115
0
0
238
128
10
170
187
232
40
124
227
99
200
225
245
146
0
200
192
0
200
192
0
0
0
255
50
172
255
50
172
0
0
0
0
3
115
0
0
238
128
10
170
187
231
174
106
226
233
182
226
233
182
0
138
73
0
138
73
0
0
0
254
168
126
254
168
126
0
0
0
0
3
115
0
0
238
128
10
170
187
235
4
232
229
76
16
225
123
128
1
25
208
1
25
208
0
0
0
254
51
78
254
51
78
0
0
0
0
3
115
0
0
238
128
10
170
187
236
237
48
226
233
182
225
1
110
1
250
103
1
250
103
0
0
0
253
211
14
253
211
14
0
0
0
0
3
115
0
0
238
128
10
170
187
235
126
250
226
233
182
226
111
164
2
199
112
2
199
112
0
0
0
253
134
235
253
134
235
0
0
0
0
3
115
0
0
238
128
10
170
187
235
4
232
228
87
236
226
233
182
3
231
115
3
231
115
0
0
0
253
77
111
253
77
111
0
0
0
0
3
115
0
0
238
128
10
170
187
234
138
214
230
64
52
227
99
200
5
157
48
5
157
48
0
0
0
253
36
183
253
36
183
0
0
0
0
3
115
0
0
238
128
10
170
187
234
16
196
229
198
34
228
87
236
7
8
15
7
8
15
0
0
0
253
10
163
253
10
163
0
0
0
0
3
115
0
0
238
128
10
170
187
233
28
160
232
40
124
227
99
200
7
26
46
7
26
46
0
0
0
252
253
9
252
253
9
0
0
0
0
3
115
0
0
238
128
10
170
187
235
4
232
231
174
106
226
233
182
5
250
166
5
250
166
0
0
0
252
249
229
252
249
229
0
0
0
0
3
115
0
0
238
128
10
170
187
236
115
30
235
4
232
229
76
16
4
123
192
4
123
192
0
0
0
252
255
124
252
255
124
0
0
0
0
3
115
0
0
238
128
10
170
187
228
209
254
236
237
48
226
233
182
2
220
108
2
220
108
0
0
0
253
12
114
253
12
114
0
0
0
0
3
115
0
0
238
128
10
170
187
227
99
200
235
126
250
226
233
182
1
4
90
1
4
90
0
0
0
253
31
215
253
31
215
0
0
0
0
3
115
0
0
238
128
10
170
187
224
135
92
235
4
232
228
87
236
255
116
74
255
116
74
0
0
0
253
57
38
253
57
38
0
0
0
0
3
115
0
0
238
128
10
170
187
225
1
110
234
138
214
230
64
52
254
161
12
254
161
12
0
0
0
253
88
54
253
88
54
0
0
0
0
3
115
0
0
238
128
10
170
187
225
123
128
234
16
196
229
198
34
253
176
185
253
176
185
0
0
0
253
125
42
253
125
42
0
0
0
0
3
115
0
0
238
128
10
170
187
225
1
110
233
28
160
232
40
124
251
185
46
251
185
46
0
0
0
253
168
91
253
168
91
0
0
0
0
3
115
0
0
238
128
10
170
187
223
25
38
235
4
232
231
174
106
249
111
38
249
111
38
0
0
0
253
218
62
253
218
62
0
0
0
0
3
115
0
0
238
128
10
170
187
223
147
56
236
115
30
235
4
232
247
244
17
247
244
17
0
0
0
254
19
91
254
19
91
0
0
0
0
3
115
0
0
238
128
10
170
187
223
25
38
228
209
254
236
237
48
247
69
16
247
69
16
0
0
0
254
84
57
254
84
57
0
0
0
0
3
115
0
0
238
128
10
170
187
224
135
92
227
99
200
235
126
250
246
249
63
246
249
63
0
0
0
254
157
89
254
157
89
0
0
0
0
3
115
0
0
238
128
10
170
187
224
135
92
224
135
92
235
4
232
247
125
84
247
125
84
0
0
0
254
239
46
254
239
46
0
0
0
0
3
115
0
0
238
128
10
170
187
223
25
38
225
1
110
234
138
214
249
60
33
249
60
33
0
0
0
255
74
19
255
74
19
0
0
0
0
3
115
0
0
238
128
10
170
187
223
147
56
225
123
128
234
16
196
251
121
195
251
121
195
0
0
0
255
174
62
255
174
62
0
0
0
0
3
115
0
0
238
128
10
170
187
225
1
110
225
1
110
233
28
160
253
62
194
253
62
194
0
0
0
0
27
169
0
27
169
0
0
0
0
3
115
0
0
238
128
10
170
187
222
159
20
223
25
38
235
4
232
254
70
115
254
70
115
0
0
0
0
145
242
0
145
242
0
0
0
0
3
115
0
0
238
128
10
170
187
221
170
240
223
147
56
236
115
30
254
201
27
254
201
27
0
0
0
1
16
59
1
16
59
0
0
0
0
3
115
0
0
238
128
10
170
187
215
120
6
223
25
38
228
209
254
255
67
167
255
67
167
0
0
0
1
149
8
1
149
8
0
0
0
0
3
115
0
0
238
128
10
170
187
210
179
82
224
135
92
227
99
200
255
242
166
255
242
166
0
0
0
2
30
26
2
30
26
0
0
0
0
3
115
0
0
238
128
10
170
187
207
92
212
224
135
92
224
135
92
0
52
238
0
52
238
0
0
0
2
168
95
2
168
95
0
0
0
0
3
115
0
0
238
128
10
170
187
212
87
201
223
25
38
225
1
110
255
8
133
255
8
133
0
0
0
3
47
241
3
47
241
0
0
0
0
3
115
0
0
238
128
10
170
187
217
82
190
223
147
56
225
123
128
252
11
173
252
11
173
0
0
0
3
176
37
3
176
37
0
0
0
0
3
115
0
0
238
128
10
170
187
222
77
179
225
1
110
225
1
110
247
239
238
247
239
238
0
0
0
4
35
183
4
35
183
0
0
0
0
3
115
0
0
238
128
10
170
187
227
72
168
222
159
20
223
25
38
244
91
250
244
91
250
0
0
0
4
133
8
4
133
8
0
0
0
0
3
115
0
0
238
128
10
170
187
229
76
16
221
170
240
223
147
56
243
58
165
243
58
165
0
0
0
4
206
107
4
206
107
0
0
0
0
3
115
0
0
238
128
10
170
187
226
233
182
215
120
6
223
25
38
245
151
139
245
151
139
0
0
0
4
250
129
4
250
129
0
0
0
0
3
115
0
0
238
128
10
170
187
227
99
200
210
179
82
224
135
92
251
6
54
251
6
54
0
0
0
5
4
146
5
4
146
0
0
0
0
3
115
0
0
238
128
10
170
187
228
87
236
207
92
212
224
135
92
2
84
94
2
84
94
0
0
0
4
232
232
4
232
232
0
0
0
0
3
115
0
0
238
128
10
170
187
225
245
146
212
87
201
223
25
38
9
243
149
9
243
149
0
0
0
4
165
23
4
165
23
0
0
0
0
3
115
0
0
238
128
10
170
187
224
13
74
217
82
190
223
147
56
15
142
194
15
142
194
0
0
0
4
56
48
4
56
48
0
0
0
0
3
115
0
0
238
128
10
170
187
219
72
150
222
77
179
225
1
110
17
45
182
17
45
182
0
0
0
3
162
232
3
162
232
0
0
0
0
3
115
0
0
238
128
10
170
187
217
96
78
227
72
168
222
159
20
14
223
85
14
223
85
0
0
0
2
231
156
2
231
156
0
0
0
0
3
115
0
0
238
128
10
170
187
209
191
46
229
76
16
221
170
240
9
251
13
9
251
13
0
0
0
2
10
54
2
10
54
0
0
0
0
3
115
0
0
238
128
10
170
187
215
120
6
226
233
182
215
120
6
3
188
55
3
188
55
0
0
0
1
16
3
1
16
3
0
0
0
0
3
115
0
0
238
128
10
170
187
235
4
232
227
99
200
210
179
82
253
99
244
253
99
244
0
0
0
255
255
109
255
255
109
0
0
0
0
3
115
0
0
238
128
10
170
187
11
113
176
228
87
236
207
92
212
248
15
76
248
15
76
0
0
0
254
223
171
254
223
171
0
0
0
0
3
115
0
0
238
128
10
170
187
59
32
184
225
245
146
212
87
201
244
73
247
244
73
247
0
0
0
253
184
95
253
184
95
0
0
0
0
3
115
0
0
238
128
10
170
187
80
27
208
224
13
74
217
82
190
244
35
33
244
35
33
0
0
0
252
145
70
252
145
70
0
0
0
0
3
115
0
0
238
128
10
170
187
49
151
80
219
72
150
222
77
179
252
123
187
252
123
187
0
0
0
251
113
220
251
113
220
0
0
0
0
3
115
0
0
238
128
10
170
187
240
67
174
217
96
78
227
72
168
17
115
125
17
115
125
0
0
0
250
97
36
250
97
36
0
0
0
0
3
115
0
0
238
128
10
170
187
214
131
226
209
191
46
229
76
16
49
63
146
49
63
146
0
0
0
249
101
129
249
101
129
0
0
0
0
3
115
0
0
238
128
10
170
187
220
182
204
215
120
6
226
233
182
80
114
30
80
114
30
0
0
0
248
132
154
248
132
154
0
0
0
0
3
115
0
0
238
128
10
170
187
225
1
110
235
4
232
227
99
200
92
116
74
92
116
74
0
0
0
247
195
85
247
195
85
0
0
0
0
3
115
0
0
238
128
10
170
187
223
25
38
11
113
176
228
87
236
73
181
102
73
181
102
0
0
0
247
37
229
247
37
229
0
0
0
0
3
115
0
0
238
128
10
170
187
225
1
110
59
32
184
225
245
146
32
150
190
32
150
190
0
0
0
246
175
204
246
175
204
0
0
0
0
3
115
0
0
238
128
10
170
187
226
111
164
80
27
208
224
13
74
244
9
192
244
9
192
0
0
0
246
99
227
246
99
227
0
0
0
0
3
115
0
0
238
128
10
170
187
224
13
74
49
151
80
219
72
150
206
42
179
206
42
179
0
0
0
246
68
79
246
68
79
0
0
0
0
3
115
0
0
238
128
10
170
187
225
1
110
240
67
174
217
96
78
178
143
249
178
143
249
0
0
0
246
82
118
246
82
118
0
0
0
0
3
115
0
0
238
128
10
170
187
224
13
74
214
131
226
209
191
46
171
60
146
171
60
146
0
0
0
246
142
247
246
142
247
0
0
0
0
3
115
0
0
238
128
10
170
187
224
13
74
220
182
204
215
120
6
191
9
90
191
9
90
0
0
0
246
249
164
246
249
164
0
0
0
0
3
115
0
0
238
128
10
170
187
225
1
110
225
1
110
235
4
232
224
166
213
224
166
213
0
0
0
247
145
170
247
145
170
0
0
0
0
3
115
0
0
238
128
10
170
187
224
135
92
223
25
38
11
113
176
249
114
247
249
114
247
0
0
0
248
85
196
248
85
196
0
0
0
0
3
115
0
0
238
128
10
170
187
222
37
2
225
1
110
59
32
184
1
166
245
1
166
245
0
0
0
249
68
168
249
68
168
0
0
0
0
3
115
0
0
238
192
10
170
187
225
1
110
226
111
164
80
27
208
1
79
178
1
79
178
0
0
0
250
93
116
250
93
116
0
0
0
0
3
115
0
0
238
128
10
170
187
225
123
128
224
13
74
49
151
80
0
28
157
0
28
157
0
0
0
251
160
32
251
160
32
0
0
0
0
3
115
0
0
238
128
10
170
187
224
135
92
225
1
110
240
67
174
255
102
240
255
102
240
0
0
0
253
13
191
253
13
191
0
0
0
0
3
115
0
0
238
128
10
170
187
224
13
74
224
13
74
214
131
226
254
253
20
254
253
20
0
0
0
254
168
98
254
168
98
0
0
0
0
3
115
0
0
238
128
10
170
187
223
25
38
224
13
74
220
182
204
255
103
227
255
103
227
0
0
0
0
114
152
0
114
152
0
0
0
0
3
115
0
0
238
128
10
170
187
222
37
2
225
1
110
225
1
110
0
103
121
0
103
121
0
0
0
2
110
111
2
110
111
0
0
0
0
3
115
0
0
238
128
10
170
187
224
135
92
224
135
92
223
25
38
0
213
159
0
213
159
0
0
0
4
156
1
4
156
1
0
0
0
0
3
115
0
0
238
128
10
170
187
224
135
92
222
37
2
225
1
110
0
74
221
0
74
221
0
0
0
6
247
214
6
247
214
0
0
0
0
3
115
0
0
238
128
10
170
187
222
159
20
225
1
110
226
111
164
255
135
92
255
135
92
0
0
0
9
121
88
9
121
88
0
0
0
0
3
115
0
0
238
128
10
170
187
225
1
110
225
123
128
224
13
74
255
53
88
255
53
88
0
0
0
12
17
174
12
17
174
0
0
0
0
3
115
0
0
238
128
10
170
187
224
135
92
224
135
92
225
1
110
255
40
242
255
40
242
0
0
0
14
171
91
14
171
91
0
0
0
0
3
115
0
0
238
128
10
170
187
224
13
74
224
13
74
224
13
74
255
2
83
255
2
83
0
0
0
17
42
211
17
42
211
0
0
0
0
3
115
0
0
238
128
10
170
187
224
135
92
223
25
38
224
13
74
254
253
20
254
253
20
0
0
0
19
112
23
19
112
23
0
0
0
0
3
115
0
0
238
128
10
170
187
222
159
20
222
37
2
225
1
110
255
141
143
255
141
143
0
0
0
21
89
57
21
89
57
0
0
0
0
3
115
0
0
238
128
10
170
187
222
159
20
224
135
92
224
135
92
0
122
18
0
122
18
0
0
0
22
197
105
22
197
105
0
0
0
0
3
115
0
0
238
128
10
170
187
222
159
20
224
135
92
222
37
2
1
5
78
1
5
78
0
0
0
23
152
50
23
152
50
0
0
0
0
3
115
0
0
238
128
10
170
187
222
159
20
222
159
20
225
1
110
0
195
7
0
195
7
0
0
0
23
188
78
23
188
78
0
0
0
0
3
115
0
0
238
128
10
170
187
222
159
20
225
1
110
225
123
128
255
244
20
255
244
20
0
0
0
23
37
183
23
37
183
0
0
0
0
3
115
0
0
238
128
10
170
187
222
159
20
224
135
92
224
135
92
255
42
219
255
42
219
0
0
0
21
210
171
21
210
171
0
0
0
0
3
115
0
0
238
128
10
170
187
222
159
20
224
13
74
224
13
74
254
163
233
254
163
233
0
0
0
19
203
146
19
203
146
0
0
0
0
3
115
0
0
238
128
10
170
187
222
159
20
224
135
92
223
25
38
254
85
181
254
85
181
0
0
0
17
33
231
17
33
231
0
0
0
0
3
115
0
0
238
128
10
170
187
222
159
20
222
159
20
222
37
2
254
80
242
254
80
242
0
0
0
13
238
122
13
238
122
0
0
0
0
3
115
0
0
238
128
10
170
187
222
159
20
222
159
20
224
135
92
254
144
215
254
144
215
0
0
0
10
79
104
10
79
104
0
0
0
0
3
115
0
0
238
128
10
170
187
222
159
20
222
159
20
224
135
92
254
249
190
254
249
190
0
0
0
6
102
37
6
102
37
0
0
0
0
3
115
0
0
238
128
10
170
187
222
159
20
222
159
20
222
159
20
255
117
184
255
117
184
0
0
0
2
85
206
2
85
206
0
0
0
0
3
115
0
0
238
128
10
170
187
222
159
20
222
159
20
225
1
110
255
212
156
255
212
156
0
0
0
254
65
242
254
65
242
0
0
0
0
3
115
0
0
238
128
10
170
187
222
159
20
222
159
20
224
135
92
255
250
72
255
250
72
0
0
0
250
77
154
250
77
154
0
0
0
0
3
115
0
0
238
128
10
170
187
222
159
20
222
159
20
224
13
74
0
0
0
0
0
0
0
0
0
246
154
125
246
154
125
0
0
0
0
3
115
0
0
238
128
10
170
187
222
159
20
222
159
20
224
135
92
0
0
0
0
0
0
0
0
0
243
72
30
243
72
30
0
0
0
0
3
115
0
0
238
128
10
170
187
222
159
20
222
159
20
222
159
20
0
0
0
0
0
0
0
0
0
240
114
154
240
114
154
0
0
0
0
3
115
0
0
238
128
10
170
187
222
159
20
222
159
20
222
159
20
0
0
0
0
0
0
0
0
0
238
49
64
238
49
64
0
0
0
0
3
115
0
0
238
128
10
170
187
222
159
20
222
159
20
222
159
20
0
0
0
0
0
0
0
0
0
236
148
235
236
148
235
0
0
0
0
3
115
0
0
238
128
10
170
187
222
159
20
222
159
20
222
159
20
0
0
0
0
0
0
0
0
0
235
166
115
235
166
115
0
0
0
0
3
115
0
0
238
128
10
170
187
222
159
20
222
159
20
222
159
20
0
0
0
0
0
0
0
0
0
235
101
144
235
101
144
0
0
0
0
3
115
0
0
238
128
10
170
187
222
159
20
222
159
20
222
159
20
0
0
0
0
0
0
0
0
0
235
200
97
235
200
97
0
0
0
0
3
115
0
0
238
128
10
170
187
222
159
20
222
159
20
222
159
20
0
0
0
0
0
0
0
0
0
236
187
243
236
187
243
0
0
0
0
3
115
0
0
238
128
10
170
187
222
159
20
222
159
20
222
159
20
0
0
0
0
0
0
0
0
0
238
37
193
238
37
193
0
0
0
0
3
115
0
0
238
128
10
170
187
222
159
20
222
159
20
222
159
20
0
0
0
0
0
0
0
0
0
239
230
2
239
230
2
0
0
0
0
3
115
0
0
238
128
10
170
187
222
159
20
222
159
20
222
159
20
0
0
0
0
0
0
0
0
0
241
218
149
241
218
149
0
0
0
0
3
115
0
0
238
128
10
170
187
222
159
20
222
159
20
222
159
20
0
0
0
0
0
0
0
0
0
243
226
8
243
226
8
0
0
0
0
3
115
0
0
238
128
10
170
187
222
159
20
222
159
20
222
159
20
0
0
0
0
0
0
0
0
0
245
222
102
245
222
102
0
0
0
0
3
115
0
0
238
128
10
170
187
222
159
20
222
159
20
222
159
20
0
0
0
0
0
0
0
0
0
247
183
87
247
183
87
0
0
0
0
3
115
0
0
238
128
10
170
187
222
159
20
222
159
20
222
159
20
0
0
0
0
0
0
0
0
0
249
91
115
249
91
115
0
0
0
0
3
115
0
0
238
128
10
170
187
222
159
20
222
159
20
222
159
20
0
0
0
0
0
0
0
0
0
250
192
151
250
192
151
0
0
0
0
3
115
0
0
238
128
10
170
187
222
159
20
222
159
20
222
159
20
0
0
0
0
0
0
0
0
0
251
227
112
251
227
112
0
0
0
0
3
115
0
0
238
128
10
170
187
222
159
20
222
159
20
222
159
20
0
0
0
0
0
0
0
0
0
252
198
85
252
198
85
0
0
0
0
3
115
0
0
238
128
10
170
187
222
159
20
222
159
20
222
159
20
0
0
0
0
0
0
0
0
0
253
111
191
253
111
191
0
0
0
0
3
115
0
0
238
128
10
170
187
222
159
20
222
159
20
222
159
20
0
0
0
0
0
0
0
0
0
253
232
168
253
232
168
0
0
0
0
3
115
0
0
238
128
10
170
187
222
159
20
222
159
20
222
159
20
0
0
0
0
0
0
0
0
0
254
59
14
254
59
14
0
0
0
0
3
115
0
0
238
128
10
170
187
222
159
20
222
159
20
222
159
20
0
0
0
0
0
0
0
0
0
254
112
185
254
112
185
0
0
0
0
3
115
0
0
238
128
10
170
187
224
135
92
222
159
20
222
159
20
0
0
0
0
0
0
0
0
0
254
146
99
254
146
99
0
0
0
0
3
115
0
0
238
128
10
170
187
224
13
74
222
159
20
222
159
20
255
254
23
255
254
23
0
0
0
254
167
75
254
167
75
0
0
0
0
3
115
0
0
238
128
10
170
187
223
25
38
222
159
20
222
159
20
255
250
71
255
250
71
0
0
0
254
181
5
254
181
5
0
0
0
0
3
115
0
0
238
128
10
170
187
224
13
74
222
159
20
222
159
20
0
22
104
0
22
104
0
0
0
254
191
155
254
191
155
0
0
0
0
3
115
0
0
238
128
10
170
187
223
25
38
222
159
20
222
159
20
0
138
193
0
138
193
0
0
0
254
201
189
254
201
189
0
0
0
0
3
115
0
0
238
128
10
170
187
222
37
2
222
159
20
222
159
20
1
48
56
1
48
56
0
0
0
254
213
20
254
213
20
0
0
0
0
3
115
0
0
238
128
10
170
187
223
147
56
222
159
20
222
159
20
1
137
221
1
137
221
0
0
0
254
226
126
254
226
126
0
0
0
0
3
115
0
0
238
128
10
170
187
224
135
92
222
159
20
222
159
20
1
121
45
1
121
45
0
0
0
254
242
78
254
242
78
0
0
0
0
3
115
0
0
238
128
10
170
187
222
159
20
224
135
92
222
159
20
1
51
21
1
51
21
0
0
0
255
4
120
255
4
120
0
0
0
0
3
115
0
0
238
128
10
170
187
224
13
74
224
13
74
222
159
20
0
192
165
0
192
165
0
0
0
255
24
180
255
24
180
0
0
0
0
3
115
0
0
238
128
10
170
187
224
13
74
223
25
38
222
159
20
0
40
137
0
40
137
0
0
0
255
46
137
255
46
137
0
0
0
0
3
115
0
0
238
128
10
170
187
222
37
2
224
13
74
222
159
20
255
158
64
255
158
64
0
0
0
255
69
103
255
69
103
0
0
0
0
3
115
0
0
238
128
10
170
187
223
25
38
223
25
38
222
159
20
255
80
134
255
80
134
0
0
0
255
92
177
255
92
177
0
0
0
0
3
115
0
0
238
128
10
170
187
224
13
74
222
37
2
222
159
20
255
87
51
255
87
51
0
0
0
255
115
196
255
115
196
0
0
0
0
3
115
0
0
238
128
10
170
187
221
170
240
223
147
56
222
159
20
255
157
197
255
157
197
0
0
0
255
138
13
255
138
13
0
0
0
0
3
115
0
0
238
128
10
170
187
221
170
240
224
135
92
222
159
20
255
200
176
255
200
176
0
0
0
255
159
8
255
159
8
0
0
0
0
3
115
0
0
238
128
10
170
187
221
170
240
222
159
20
224
135
92
255
163
126
255
163
126
0
0
0
255
178
92
255
178
92
0
0
0
0
3
115
0
0
238
128
10
170
187
219
72
150
224
13
74
224
13
74
255
107
58
255
107
58
0
0
0
255
195
208
255
195
208
0
0
0
0
3
115
0
0
238
128
10
170
187
221
170
240
224
13
74
223
25
38
255
56
175
255
56
175
0
0
0
255
211
95
255
211
95
0
0
0
0
3
115
0
0
238
128
10
170
187
221
170
240
222
37
2
224
13
74
254
203
3
254
203
3
0
0
0
255
225
46
255
225
46
0
0
0
0
3
115
0
0
238
128
10
170
187
220
60
186
223
25
38
223
25
38
254
48
254
254
48
254
0
0
0
255
237
142
255
237
142
0
0
0
0
3
115
0
0
238
128
10
170
187
221
48
222
224
13
74
222
37
2
253
222
5
253
222
5
0
0
0
255
248
235
255
248
235
0
0
0
0
3
115
0
0
238
128
10
170
187
221
170
240
221
170
240
223
147
56
253
248
185
253
248
185
0
0
0
0
3
196
0
3
196
0
0
0
0
3
115
0
0
238
128
10
170
187
220
182
204
221
170
240
224
135
92
254
50
229
254
50
229
0
0
0
0
14
158
0
14
158
0
0
0
0
3
115
0
0
238
128
10
170
187
224
135
92
221
170
240
222
159
20
254
105
66
254
105
66
0
0
0
0
25
241
0
25
241
0
0
0
0
3
115
0
0
238
128
10
170
187
225
1
110
219
72
150
224
13
74
254
216
214
254
216
214
0
0
0
0
38
24
0
38
24
0
0
0
0
3
115
0
0
238
128
10
170
187
223
147
56
221
170
240
224
13
74
255
146
84
255
146
84
0
0
0
0
51
76
0
51
76
0
0
0
0
3
115
0
0
238
128
10
170
187
227
99
200
221
170
240
222
37
2
0
103
244
0
103
244
0
0
0
0
65
146
0
65
146
0
0
0
0
3
115
0
0
238
128
10
170
187
228
87
236
220
60
186
223
25
38
1
82
142
1
82
142
0
0
0
0
80
188
0
80
188
0
0
0
0
3
115
0
0
238
128
10
170
187
228
87
236
221
48
222
224
13
74
2
79
72
2
79
72
0
0
0
0
96
105
0
96
105
0
0
0
0
3
115
0
0
238
128
10
170
187
229
198
34
221
170
240
221
170
240
3
69
206
3
69
206
0
0
0
0
112
1
0
112
1
0
0
0
0
3
115
0
0
238
128
10
170
187
232
40
124
220
182
204
221
170
240
4
70
88
4
70
88
0
0
0
0
126
201
0
126
201
0
0
0
0
3
115
0
0
238
128
10
170
187
230
186
70
224
135
92
221
170
240
5
88
133
5
88
133
0
0
0
0
139
226
0
139
226
0
0
0
0
3
115
0
0
238
128
10
170
187
232
162
142
225
1
110
219
72
150
6
49
123
6
49
123
0
0
0
0
150
92
0
150
92
0
0
0
0
3
115
0
0
238
128
10
170
187
232
162
142
223
147
56
221
170
240
6
146
194
6
146
194
0
0
0
0
157
67
0
157
67
0
0
0
0
3
115
0
0
238
128
10
170
187
231
174
106
227
99
200
221
170
240
6
178
59
6
178
59
0
0
0
0
159
174
0
159
174
0
0
0
0
3
115
0
0
238
128
10
170
187
233
28
160
228
87
236
220
60
186
6
195
101
6
195
101
0
0
0
0
156
202
0
156
202
0
0
0
0
3
115
0
0
238
128
10
170
187
231
174
106
228
87
236
221
48
222
6
135
80
6
135
80
0
0
0
0
147
236
0
147
236
0
0
0
0
3
115
0
0
238
128
10
170
187
231
174
106
229
198
34
221
170
240
5
210
152
5
210
152
0
0
0
0
132
166
0
132
166
0
0
0
0
3
115
0
0
238
128
10
170
187
232
40
124
232
40
124
220
182
204
4
206
62
4
206
62
0
0
0
0
110
204
0
110
204
0
0
0
0
3
115
0
0
238
128
10
170
187
231
52
88
230
186
70
224
135
92
3
144
49
3
144
49
0
0
0
0
82
139
0
82
139
0
0
0
0
3
115
0
0
238
128
10
170
187
230
186
70
232
162
142
225
1
110
2
47
206
2
47
206
0
0
0
0
48
121
0
48
121
0
0
0
0
3
115
0
0
238
128
10
170
187
230
186
70
232
162
142
223
147
56
0
254
39
0
254
39
0
0
0
0
9
161
0
9
161
0
0
0
0
3
115
0
0
238
128
10
170
187
229
198
34
231
174
106
227
99
200
0
20
129
0
20
129
0
0
0
255
223
144
255
223
144
0
0
0
0
3
115
0
0
238
128
10
170
187
228
87
236
233
28
160
228
87
236
255
69
143
255
69
143
0
0
0
255
180
86
255
180
86
0
0
0
0
3
115
0
0
238
128
10
170
187
230
64
52
231
174
106
228
87
236
254
176
78
254
176
78
0
0
0
255
138
129
255
138
129
0
0
0
0
3
115
0
0
238
128
10
170
187
229
76
16
231
174
106
229
198
34
254
113
215
254
113
215
0
0
0
255
101
17
255
101
17
0
0
0
0
3
115
0
0
238
128
10
170
187
228
209
254
232
40
124
232
40
124
254
54
183
254
54
183
0
0
0
255
71
87
255
71
87
0
0
0
0
3
115
0
0
238
128
10
170
187
229
198
34
231
52
88
230
186
70
253
222
250
253
222
250
0
0
0
255
52
211
255
52
211
0
0
0
0
3
115
0
0
238
128
10
170
187
230
64
52
230
186
70
232
162
142
253
205
85
253
205
85
0
0
0
255
49
4
255
49
4
0
0
0
0
3
115
0
0
238
128
10
170
187
228
87
236
230
186
70
232
162
142
254
37
18
254
37
18
0
0
0
255
63
45
255
63
45
0
0
0
0
3
115
0
0
238
128
10
170
187
229
198
34
229
198
34
231
174
106
254
135
199
254
135
199
0
0
0
255
98
31
255
98
31
0
0
0
0
3
115
0
0
238
128
10
170
187
229
76
16
228
87
236
233
28
160
254
214
238
254
214
238
0
0
0
255
156
0
255
156
0
0
0
0
0
3
115
0
0
238
128
10
170
187
227
99
200
230
64
52
231
174
106
255
62
103
255
62
103
0
0
0
255
238
23
255
238
23
0
0
0
0
3
115
0
0
238
128
10
170
187
227
221
218
229
76
16
231
174
106
255
147
72
255
147
72
0
0
0
0
88
160
0
88
160
0
0
0
0
3
115
0
0
238
128
10
170
187
226
111
164
228
209
254
232
40
124
255
138
57
255
138
57
0
0
0
0
218
179
0
218
179
0
0
0
0
3
115
0
0
238
128
10
170
187
226
233
182
229
198
34
231
52
88
255
47
37
255
47
37
0
0
0
1
114
53
1
114
53
0
0
0
0
3
115
0
0
238
128
10
170
187
228
209
254
230
64
52
230
186
70
254
176
201
254
176
201
0
0
0
2
27
217
2
27
217
0
0
0
0
3
115
0
0
238
128
10
170
187
228
87
236
228
87
236
230
186
70
254
28
247
254
28
247
0
0
0
2
211
55
2
211
55
0
0
0
0
3
115
0
0
238
128
10
170
187
226
111
164
229
198
34
229
198
34
253
156
178
253
156
178
0
0
0
3
146
243
3
146
243
0
0
0
0
3
115
0
0
238
128
10
170
187
227
221
218
229
76
16
228
87
236
253
149
139
253
149
139
0
0
0
4
84
238
4
84
238
0
0
0
0
3
115
0
0
238
128
10
170
187
226
233
182
227
99
200
230
64
52
254
41
92
254
41
92
0
0
0
5
18
139
5
18
139
0
0
0
0
3
115
0
0
238
128
10
170
187
225
1
110
227
221
218
229
76
16
254
243
138
254
243
138
0
0
0
5
196
254
5
196
254
0
0
0
0
3
115
0
0
238
128
10
170
187
227
99
200
226
111
164
228
209
254
255
146
205
255
146
205
0
0
0
6
101
159
6
101
159
0
0
0
0
3
115
0
0
238
128
10
170
187
226
111
164
226
233
182
229
198
34
255
246
241
255
246
241
0
0
0
6
238
59
6
238
59
0
0
0
0
3
115
0
0
238
128
10
170
187
224
135
92
228
209
254
230
64
52
0
15
66
0
15
66
0
0
0
7
89
103
7
89
103
0
0
0
0
3
115
0
0
238
128
10
170
187
227
99
200
228
87
236
228
87
236
255
191
38
255
191
38
0
0
0
7
162
198
7
162
198
0
0
0
0
3
115
0
0
238
128
10
170
187
226
111
164
226
111
164
229
198
34
255
48
26
255
48
26
0
0
0
7
199
64
7
199
64
0
0
0
0
3
115
0
0
238
128
10
170
187
224
135
92
227
221
218
229
76
16
254
172
249
254
172
249
0
0
0
7
197
46
7
197
46
0
0
0
0
3
115
0
0
238
128
10
170
187
225
245
146
226
233
182
227
99
200
254
89
12
254
89
12
0
0
0
7
156
104
7
156
104
0
0
0
0
3
115
0
0
238
128
10
170
187
226
233
182
225
1
110
227
221
218
254
94
74
254
94
74
0
0
0
7
78
66
7
78
66
0
0
0
0
3
115
0
0
238
128
10
170
187
226
111
164
227
99
200
226
111
164
254
192
11
254
192
11
0
0
0
6
221
121
6
221
121
0
0
0
0
3
115
0
0
238
128
10
170
187
226
233
182
226
111
164
226
233
182
255
18
15
255
18
15
0
0
0
6
78
2
6
78
2
0
0
0
0
3
115
0
0
238
128
10
170
187
227
99
200
224
135
92
228
209
254
255
30
239
255
30
239
0
0
0
5
164
216
5
164
216
0
0
0
0
3
115
0
0
238
128
10
170
187
226
233
182
227
99
200
228
87
236
255
95
200
255
95
200
0
0
0
4
231
173
4
231
173
0
0
0
0
3
115
0
0
238
128
10
170
187
228
87
236
226
111
164
226
111
164
0
28
156
0
28
156
0
0
0
4
28
167
4
28
167
0
0
0
0
3
115
0
0
238
128
10
170
187
227
221
218
224
135
92
227
221
218
0
206
243
0
206
243
0
0
0
3
74
14
3
74
14
0
0
0
0
3
115
0
0
238
128
10
170
187
225
245
146
225
245
146
226
233
182
1
32
3
1
32
3
0
0
0
2
118
6
2
118
6
0
0
0
0
3
115
0
0
238
128
10
170
187
227
221
218
226
233
182
225
1
110
1
108
200
1
108
200
0
0
0
1
166
70
1
166
70
0
0
0
0
3
115
0
0
238
128
10
170
187
229
76
16
226
111
164
227
99
200
1
202
184
1
202
184
0
0
0
0
223
228
0
223
228
0
0
0
0
3
115
0
0
238
128
10
170
187
229
198
34
226
233
182
226
111
164
1
190
82
1
190
82
0
0
0
0
39
40
0
39
40
0
0
0
0
3
115
0
0
238
128
10
170
187
228
209
254
227
99
200
224
135
92
1
32
3
1
32
3
0
0
0
255
127
103
255
127
103
0
0
0
0
3
115
0
0
238
128
10
170
187
228
87
236
226
233
182
227
99
200
0
143
135
0
143
135
0
0
0
254
234
253
254
234
253
0
0
0
0
3
115
0
0
238
128
10
170
187
229
76
16
228
87
236
226
111
164
0
186
113
0
186
113
0
0
0
254
107
65
254
107
65
0
0
0
0
3
115
0
1
177
160
10
170
187
227
99
200
227
221
218
224
135
92
1
90
169
1
90
169
0
0
0
254
0
152
254
0
152
0
0
0
0
3
115
0
1
177
128
10
170
187
225
123
128
225
245
146
225
245
146
1
123
21
1
123
21
0
0
0
253
170
141
253
170
141
0
0
0
0
3
115
0
1
177
128
10
170
187
221
170
240
227
221
218
226
233
182
0
249
220
0
249
220
0
0
0
253
103
245
253
103
245
0
0
0
0
3
115
0
1
177
128
10
170
187
219
72
150
229
76
16
226
111
164
0
163
19
0
163
19
0
0
0
253
55
29
253
55
29
0
0
0
0
3
115
0
1
177
128
10
170
187
212
155
154
229
198
34
226
233
182
0
73
233
0
73
233
0
0
0
253
21
252
253
21
252
0
0
0
0
3
115
0
1
177
128
10
170
187
209
191
46
228
209
254
227
99
200
254
188
180
254
188
180
0
0
0
253
2
103
253
2
103
0
0
0
0
3
115
0
1
177
128
10
170
187
224
135
92
228
87
236
226
233
182
251
217
155
251
217
155
0
0
0
252
250
68
252
250
68
0
0
0
0
3
115
0
1
177
128
10
170
187
249
83
4
229
76
16
228
87
236
248
147
84
248
147
84
0
0
0
252
251
171
252
251
171
0
0
0
0
3
115
0
1
177
128
10
170
187
35
195
70
227
99
200
227
221
218
245
100
106
245
100
106
0
0
0
253
5
12
253
5
12
0
0
0
0
3
115
0
1
177
128
10
170
187
74
98
248
225
123
128
225
245
146
243
110
200
243
110
200
0
0
0
253
21
56
253
21
56
0
0
0
0
3
115
0
1
177
128
10
170
187
72
244
194
221
170
240
227
221
218
246
231
155
246
231
155
0
0
0
253
43
105
253
43
105
0
0
0
0
3
115
0
1
177
128
10
170
187
16
54
100
219
72
150
229
76
16
5
79
241
5
79
241
0
0
0
253
71
46
253
71
46
0
0
0
0
3
115
0
1
177
128
10
170
187
221
48
222
212
155
154
229
198
34
32
119
70
32
119
70
0
0
0
253
104
90
253
104
90
0
0
0
0
3
115
0
1
177
128
10
170
187
215
120
6
209
191
46
228
209
254
66
6
114
66
6
114
0
0
0
253
142
230
253
142
230
0
0
0
0
3
115
0
1
177
128
10
170
187
224
135
92
224
135
92
228
87
236
89
244
96
89
244
96
0
0
0
253
186
200
253
186
200
0
0
0
0
3
115
0
1
177
128
10
170
187
224
13
74
249
83
4
229
76
16
86
228
238
86
228
238
0
0
0
253
235
222
253
235
222
0
0
0
0
3
115
0
1
177
128
10
170
187
224
135
92
35
195
70
227
99
200
54
189
196
54
189
196
0
0
0
254
33
197
254
33
197
0
0
0
0
3
115
0
1
177
128
10
170
187
225
245
146
74
98
248
225
123
128
9
200
89
9
200
89
0
0
0
254
91
211
254
91
211
0
0
0
0
3
115
0
1
177
128
10
170
187
225
123
128
72
244
194
221
170
240
224
23
77
224
23
77
0
0
0
254
153
12
254
153
12
0
0
0
0
3
115
0
1
177
128
10
170
187
223
147
56
16
54
100
219
72
150
190
162
213
190
162
213
0
0
0
254
216
46
254
216
46
0
0
0
0
3
115
0
1
177
128
10
170
187
223
25
38
221
48
222
212
155
154
171
150
177
171
150
177
0
0
0
255
23
206
255
23
206
0
0
0
0
3
115
0
1
177
128
10
170
187
224
135
92
215
120
6
209
191
46
178
16
47
178
16
47
0
0
0
255
86
148
255
86
148
0
0
0
0
3
115
0
1
177
128
10
170
187
224
135
92
224
135
92
224
135
92
207
164
91
207
164
91
0
0
0
255
147
136
255
147
136
0
0
0
0
3
115
0
1
177
128
10
170
187
224
135
92
224
13
74
249
83
4
239
40
113
239
40
113
0
0
0
255
206
118
255
206
118
0
0
0
0
3
115
0
1
177
128
10
170
187
223
25
38
224
135
92
35
195
70
255
78
36
255
78
36
0
0
0
0
8
102
0
8
102
0
0
0
0
3
115
0
1
177
128
10
170
187
224
13
74
225
245
146
74
98
248
1
230
96
1
230
96
0
0
0
0
68
19
0
68
19
0
0
0
0
3
115
0
1
177
128
10
170
187
226
233
182
225
123
128
72
244
194
0
161
166
0
161
166
0
0
0
0
134
52
0
134
52
0
0
0
0
3
115
0
1
177
128
10
170
187
225
123
128
223
147
56
16
54
100
255
187
85
255
187
85
0
0
0
0
213
179
0
213
179
0
0
0
0
3
115
0
1
177
128
10
170
187
223
147
56
223
25
38
221
48
222
255
31
227
255
31
227
0
0
0
1
59
106
1
59
106
0
0
0
0
3
115
0
1
177
128
10
170
187
223
147
56
224
135
92
215
120
6
255
18
15
255
18
15
0
0
0
1
193
145
1
193
145
0
0
0
0
3
115
0
1
177
128
10
170
187
222
37
2
224
135
92
224
135
92
255
231
175
255
231
175
0
0
0
2
114
163
2
114
163
0
0
0
0
3
115
0
1
177
128
10
170
187
223
147
56
224
135
92
224
13
74
0
193
152
0
193
152
0
0
0
3
87
228
3
87
228
0
0
0
0
3
115
0
1
177
128
10
170
187
224
135
92
223
25
38
224
135
92
0
166
106
0
166
106
0
0
0
4
119
168
4
119
168
0
0
0
0
3
115
0
1
177
128
10
170
187
223
147
56
224
13
74
225
245
146
255
223
147
255
223
147
0
0
0
5
211
130
5
211
130
0
0
0
0
3
115
0
1
177
128
10
170
187
225
1
110
226
233
182
225
123
128
255
79
23
255
79
23
0
0
0
7
102
201
7
102
201
0
0
0
0
3
115
0
1
177
128
10
170
187
224
135
92
225
123
128
223
147
56
255
47
158
255
47
158
0
0
0
9
37
159
9
37
159
0
0
0
0
3
115
0
1
177
128
10
170
187
224
13
74
223
147
56
223
25
38
255
25
53
255
25
53
0
0
0
10
252
227
10
252
227
0
0
0
0
3
115
0
1
177
128
10
170
187
223
147
56
223
147
56
224
135
92
254
240
174
254
240
174
0
0
0
12
210
252
12
210
252
0
0
0
0
3
115
0
1
177
128
10
170
187
223
147
56
222
37
2
224
135
92
255
49
14
255
49
14
0
0
0
14
137
176
14
137
176
0
0
0
0
3
115
0
1
177
128
10
170
187
222
159
20
223
147
56
224
135
92
0
5
63
0
5
63
0
0
0
16
0
172
16
0
172
0
0
0
0
3
115
0
1
177
128
10
170
187
222
159
20
224
135
92
223
25
38
0
214
148
0
214
148
0
0
0
17
24
126
17
24
126
0
0
0
0
3
115
0
1
177
128
10
170
187
222
159
20
223
147
56
224
13
74
0
252
186
0
252
186
0
0
0
17
181
134
17
181
134
0
0
0
0
3
115
0
1
177
128
10
170
187
222
159
20
225
1
110
226
233
182
0
99
47
0
99
47
0
0
0
17
194
144
17
194
144
0
0
0
0
3
115
0
1
177
128
10
170
187
222
159
20
224
135
92
225
123
128
255
136
203
255
136
203
0
0
0
17
50
146
17
50
146
0
0
0
0
3
115
0
1
177
128
10
170
187
222
159
20
224
13
74
223
147
56
254
223
254
254
223
254
0
0
0
16
1
144
16
1
144
0
0
0
0
3
115
0
1
177
128
10
170
187
222
159
20
223
147
56
223
147
56
254
116
58
254
116
58
0
0
0
14
52
137
14
52
137
0
0
0
0
3
115
0
1
177
128
10
170
187
222
159
20
223
147
56
222
37
2
254
73
80
254
73
80
0
0
0
11
216
166
11
216
166
0
0
0
0
3
115
0
1
177
128
10
170
187
222
159
20
222
159
20
223
147
56
254
106
177
254
106
177
0
0
0
9
1
233
9
1
233
0
0
0
0
3
115
0
1
177
128
10
170
187
222
159
20
222
159
20
224
135
92
254
193
122
254
193
122
0
0
0
5
201
165
5
201
165
0
0
0
0
3
115
0
1
177
128
10
170
187
222
159
20
222
159
20
223
147
56
255
55
187
255
55
187
0
0
0
2
77
16
2
77
16
0
0
0
0
3
115
0
1
177
128
10
170
187
222
159
20
222
159
20
225
1
110
255
171
154
255
171
154
0
0
0
254
172
7
254
172
7
0
0
0
0
3
115
0
1
177
128
10
170
187
222
159
20
222
159
20
224
135
92
255
237
226
255
237
226
0
0
0
251
7
249
251
7
249
0
0
0
0
3
115
0
1
177
128
10
170
187
222
159
20
222
159
20
224
13
74
255
255
12
255
255
12
0
0
0
247
130
231
247
130
231
0
0
0
0
3
115
0
1
177
128
10
170
187
222
159
20
222
159
20
223
147
56
0
0
0
0
0
0
0
0
0
244
62
79
244
62
79
0
0
0
0
3
115
0
1
177
128
10
170
187
222
159
20
222
159
20
223
147
56
0
0
0
0
0
0
0
0
0
241
89
203
241
89
203
0
0
0
0
3
115
0
1
177
128
10
170
187
222
159
20
222
159
20
222
159
20
0
0
0
0
0
0
0
0
0
238
241
115
238
241
115
0
0
0
0
3
115
0
1
177
128
10
170
187
222
159
20
222
159
20
222
159
20
0
0
0
0
0
0
0
0
0
237
27
236
237
27
236
0
0
0
0
3
115
0
1
177
128
10
170
187
222
159
20
222
159
20
222
159
20
0
0
0
0
0
0
0
0
0
235
232
150
235
232
150
0
0
0
0
3
115
0
1
177
128
10
170
187
222
159
20
222
159
20
222
159
20
0
0
0
0
0
0
0
0
0
235
93
236
235
93
236
0
0
0
0
3
115
0
1
177
128
10
170
187
222
159
20
222
159
20
222
159
20
0
0
0
0
0
0
0
0
0
235
120
156
235
120
156
0
0
0
0
3
115
0
1
177
128
10
170
187
222
159
20
222
159
20
222
159
20
0
0
0
0
0
0
0
0
0
236
43
138
236
43
138
0
0
0
0
3
115
0
1
177
128
10
170
187
222
159
20
222
159
20
222
159
20
0
0
0
0
0
0
0
0
0
237
96
198
237
96
198
0
0
0
0
3
115
0
1
177
128
10
170
187
222
159
20
222
159
20
222
159
20
0
0
0
0
0
0
0
0
0
238
251
149
238
251
149
0
0
0
0
3
115
0
1
177
128
10
170
187
222
159
20
222
159
20
222
159
20
0
0
0
0
0
0
0
0
0
240
219
33
240
219
33
0
0
0
0
3
115
0
1
177
128
10
170
187
222
159
20
222
159
20
222
159
20
0
0
0
0
0
0
0
0
0
242
221
149
242
221
149
0
0
0
0
3
115
0
1
177
128
10
170
187
222
159
20
222
159
20
222
159
20
0
0
0
0
0
0
0
0
0
244
227
34
244
227
34
0
0
0
0
3
115
0
1
177
128
10
170
187
222
159
20
222
159
20
222
159
20
0
0
0
0
0
0
0
0
0
246
208
128
246
208
128
0
0
0
0
3
115
0
1
177
128
10
170
187
222
159
20
222
159
20
222
159
20
0
0
0
0
0
0
0
0
0
248
144
200
248
144
200
0
0
0
0
3
115
0
1
177
128
10
170
187
222
159
20
222
159
20
222
159
20
0
0
0
0
0
0
0
0
0
250
22
61
250
22
61
0
0
0
0
3
115
0
1
177
128
10
170
187
222
159
20
222
159
20
222
159
20
0
0
0
0
0
0
0
0
0
251
90
69
251
90
69
0
0
0
0
3
115
0
1
177
128
10
170
187
222
159
20
222
159
20
222
159
20
0
0
0
0
0
0
0
0
0
252
92
142
252
92
142
0
0
0
0
3
115
0
1
177
128
10
170
187
222
159
20
222
159
20
222
159
20
0
0
0
0
0
0
0
0
0
253
33
180
253
33
180
0
0
0
0
3
115
0
1
177
128
10
170
187
222
159
20
222
159
20
222
159
20
0
0
0
0
0
0
0
0
0
253
177
167
253
177
167
0
0
0
0
3
115
0
1
177
128
10
170
187
222
159
20
222
159
20
222
159
20
0
0
0
0
0
0
0
0
0
254
22
12
254
22
12
0
0
0
0
3
115
0
1
177
128
10
170
187
222
37
2
222
159
20
222
159
20
0
0
0
0
0
0
0
0
0
254
88
231
254
88
231
0
0
0
0
3
115
0
1
177
128
10
170
187
223
25
38
222
159
20
222
159
20
0
0
0
0
0
0
0
0
0
254
131
144
254
131
144
0
0
0
0
3
115
0
1
177
128
10
170
187
225
123
128
222
159
20
222
159
20
255
255
133
255
255
133
0
0
0
254
158
11
254
158
11
0
0
0
0
3
115
0
1
177
128
10
170
187
224
135
92
222
159
20
222
159
20
255
251
181
255
251
181
0
0
0
254
174
196
254
174
196
0
0
0
0
3
115
0
1
177
128
10
170
187
224
135
92
222
159
20
222
159
20
0
0
121
0
0
121
0
0
0
254
186
130
254
186
130
0
0
0
0
3
115
0
1
177
128
10
170
187
224
13
74
222
159
20
222
159
20
0
68
47
0
68
47
0
0
0
254
196
155
254
196
155
0
0
0
0
3
115
0
1
177
128
10
170
187
223
25
38
222
159
20
222
159
20
0
222
174
0
222
174
0
0
0
254
207
49
254
207
49
0
0
0
0
3
115
0
1
177
128
10
170
187
223
147
56
222
159
20
222
159
20
1
108
77
1
108
77
0
0
0
254
219
126
254
219
126
0
0
0
0
3
115
0
1
177
128
10
170
187
224
13
74
222
37
2
222
159
20
1
140
64
1
140
64
0
0
0
254
234
24
254
234
24
0
0
0
0
3
115
0
1
177
128
10
170
187
222
159
20
223
25
38
222
159
20
1
90
168
1
90
168
0
0
0
254
251
27
254
251
27
0
0
0
0
3
115
0
1
177
128
10
170
187
223
25
38
225
123
128
222
159
20
0
255
28
0
255
28
0
0
0
255
14
90
255
14
90
0
0
0
0
3
115
0
1
177
128
10
170
187
224
13
74
224
135
92
222
159
20
0
119
54
0
119
54
0
0
0
255
35
114
255
35
114
0
0
0
0
3
115
0
1
177
128
10
170
187
222
159
20
224
135
92
222
159
20
255
223
147
255
223
147
0
0
0
255
57
224
255
57
224
0
0
0
0
3
115
0
1
177
128
10
170
187
222
37
2
224
13
74
222
159
20
255
109
34
255
109
34
0
0
0
255
81
8
255
81
8
0
0
0
0
3
115
0
1
177
128
10
170
187
223
25
38
223
25
38
222
159
20
255
71
119
255
71
119
0
0
0
255
104
74
255
104
74
0
0
0
0
3
115
0
1
177
128
10
170
187
222
159
20
223
147
56
222
159
20
255
119
160
255
119
160
0
0
0
255
127
10
255
127
10
0
0
0
0
3
115
0
1
177
128
10
170
187
221
170
240
224
13
74
222
37
2
255
189
184
255
189
184
0
0
0
255
148
187
255
148
187
0
0
0
0
3
115
0
1
177
128
10
170
187
221
48
222
222
159
20
223
25
38
255
189
184
255
189
184
0
0
0
255
168
236
255
168
236
0
0
0
0
3
115
0
1
177
128
10
170
187
220
182
204
223
25
38
225
123
128
255
132
128
255
132
128
0
0
0
255
187
83
255
187
83
0
0
0
0
3
115
0
1
177
128
10
170
187
220
182
204
224
13
74
224
135
92
255
84
209
255
84
209
0
0
0
255
203
211
255
203
211
0
0
0
0
3
115
0
1
177
128
10
170
187
222
37
2
222
159
20
224
135
92
255
12
208
255
12
208
0
0
0
255
218
123
255
218
123
0
0
0
0
3
115
0
1
177
128
10
170
187
220
60
186
222
37
2
224
13
74
254
124
208
254
124
208
0
0
0
255
231
133
255
231
133
0
0
0
0
3
115
0
1
177
128
10
170
187
221
48
222
223
25
38
223
25
38
253
247
197
253
247
197
0
0
0
255
243
85
255
243
85
0
0
0
0
3
115
0
1
177
128
10
170
187
221
170
240
222
159
20
223
147
56
253
225
92
253
225
92
0
0
0
255
254
96
255
254
96
0
0
0
0
3
115
0
1
177
128
10
170
187
221
48
222
221
170
240
224
13
74
254
23
184
254
23
184
0
0
0
0
9
42
0
9
42
0
0
0
0
3
115
0
1
177
128
10
170
187
222
37
2
221
48
222
222
159
20
254
75
178
254
75
178
0
0
0
0
20
51
0
20
51
0
0
0
0
3
115
0
1
177
128
10
170
187
225
1
110
220
182
204
223
25
38
254
149
155
254
149
155
0
0
0
0
31
231
0
31
231
0
0
0
0
3
115
0
1
177
128
10
170
187
224
13
74
220
182
204
224
13
74
255
47
37
255
47
37
0
0
0
0
44
144
0
44
144
0
0
0
0
3
115
0
1
177
128
10
170
187
225
245
146
222
37
2
222
159
20
255
252
48
255
252
48
0
0
0
0
58
78
0
58
78
0
0
0
0
3
115
0
1
177
128
10
170
187
227
99
200
220
60
186
222
37
2
0
217
234
0
217
234
0
0
0
0
73
16
0
73
16
0
0
0
0
3
115
0
1
177
128
10
170
187
227
221
218
221
48
222
223
25
38
1
207
124
1
207
124
0
0
0
0
88
139
0
88
139
0
0
0
0
3
115
0
1
177
128
10
170
187
228
209
254
221
170
240
222
159
20
2
203
65
2
203
65
0
0
0
0
104
66
0
104
66
0
0
0
0
3
115
0
1
177
128
10
170
187
231
174
106
221
48
222
221
170
240
3
195
176
3
195
176
0
0
0
0
119
140
0
119
140
0
0
0
0
3
115
0
1
177
128
10
170
187
232
40
124
222
37
2
221
48
222
4
208
159
4
208
159
0
0
0
0
133
154
0
133
154
0
0
0
0
3
115
0
1
177
128
10
170
187
231
174
106
225
1
110
220
182
204
5
209
163
5
209
163
0
0
0
0
145
131
0
145
131
0
0
0
0
3
115
0
1
177
128
10
170
187
234
16
196
224
13
74
220
182
204
6
111
121
6
111
121
0
0
0
0
154
81
0
154
81
0
0
0
0
3
115
0
1
177
128
10
170
187
232
162
142
225
245
146
222
37
2
6
165
91
6
165
91
0
0
0
0
159
22
0
159
22
0
0
0
0
3
115
0
1
177
128
10
170
187
231
174
106
227
99
200
220
60
186
6
191
149
6
191
149
0
0
0
0
158
241
0
158
241
0
0
0
0
3
115
0
1
177
128
10
170
187
232
40
124
227
221
218
221
48
222
6
179
169
6
179
169
0
0
0
0
153
34
0
153
34
0
0
0
0
3
115
0
1
177
128
10
170
187
232
162
142
228
209
254
221
170
240
6
57
29
6
57
29
0
0
0
0
141
27
0
141
27
0
0
0
0
3
115
0
1
177
128
10
170
187
232
40
124
231
174
106
221
48
222
5
89
0
5
89
0
0
0
0
0
122
139
0
122
139
0
0
0
0
3
115
0
1
177
128
10
170
187
230
186
70
232
40
124
222
37
2
4
55
143
4
55
143
0
0
0
0
97
113
0
97
113
0
0
0
0
3
115
0
1
177
128
10
170
187
231
52
88
231
174
106
225
1
110
2
222
84
2
222
84
0
0
0
0
66
46
0
66
46
0
0
0
0
3
115
0
1
177
128
10
170
187
230
64
52
234
16
196
224
13
74
1
139
198
1
139
198
0
0
0
0
29
143
0
29
143
0
0
0
0
3
115
0
1
177
128
10
170
187
231
52
88
232
162
142
225
245
146
0
133
10
0
133
10
0
0
0
255
244
226
255
244
226
0
0
0
0
3
115
0
1
177
128
10
170
187
229
76
16
231
174
106
227
99
200
255
170
166
255
170
166
0
0
0
255
201
242
255
201
242
0
0
0
0
3
115
0
1
177
128
10
170
187
229
198
34
232
40
124
227
221
218
254
237
210
254
237
210
0
0
0
255
159
17
255
159
17
0
0
0
0
3
115
0
1
177
128
10
170
187
231
52
88
232
162
142
228
209
254
254
137
53
254
137
53
0
0
0
255
119
9
255
119
9
0
0
0
0
3
115
0
1
177
128
10
170
187
229
76
16
232
40
124
231
174
106
254
90
244
254
90
244
0
0
0
255
85
6
255
85
6
0
0
0
0
3
115
0
1
177
128
10
170
187
229
198
34
230
186
70
232
40
124
254
10
94
254
10
94
0
0
0
255
60
118
255
60
118
0
0
0
0
3
115
0
1
177
128
10
170
187
230
186
70
231
52
88
231
174
106
253
197
180
253
197
180
0
0
0
255
48
222
255
48
222
0
0
0
0
3
115
0
1
177
128
10
170
187
228
209
254
230
64
52
234
16
196
253
240
158
253
240
158
0
0
0
255
53
168
255
53
168
0
0
0
0
3
115
0
1
177
128
10
170
187
229
76
16
231
52
88
232
162
142
254
91
110
254
91
110
0
0
0
255
77
229
255
77
229
0
0
0
0
3
115
0
1
177
128
10
170
187
228
209
254
229
76
16
231
174
106
254
174
102
254
174
102
0
0
0
255
124
24
255
124
24
0
0
0
0
3
115
0
1
177
128
10
170
187
227
99
200
229
198
34
232
40
124
255
7
146
255
7
146
0
0
0
255
193
251
255
193
251
0
0
0
0
3
115
0
1
177
128
10
170
187
226
233
182
231
52
88
232
162
142
255
112
243
255
112
243
0
0
0
0
32
84
0
32
84
0
0
0
0
3
115
0
1
177
128
10
170
187
227
99
200
229
76
16
232
40
124
255
155
221
255
155
221
0
0
0
0
150
210
0
150
210
0
0
0
0
3
115
0
1
177
128
10
170
187
226
111
164
229
198
34
230
186
70
255
100
19
255
100
19
0
0
0
1
35
244
1
35
244
0
0
0
0
3
115
0
1
177
128
10
170
187
227
221
218
230
186
70
231
52
88
254
242
150
254
242
150
0
0
0
1
197
2
1
197
2
0
0
0
0
3
115
0
1
177
128
10
170
187
228
209
254
228
209
254
230
64
52
254
104
78
254
104
78
0
0
0
2
118
34
2
118
34
0
0
0
0
3
115
0
1
177
128
10
170
187
227
221
218
229
76
16
231
52
88
253
212
124
253
212
124
0
0
0
3
50
104
3
50
104
0
0
0
0
3
115
0
1
177
128
10
170
187
228
87
236
228
209
254
229
76
16
253
132
219
253
132
219
0
0
0
3
244
16
3
244
16
0
0
0
0
3
115
0
1
177
128
10
170
187
227
99
200
227
99
200
229
198
34
253
208
171
253
208
171
0
0
0
4
180
180
4
180
180
0
0
0
0
3
115
0
1
177
128
10
170
187
226
111
164
226
233
182
231
52
88
254
142
238
254
142
238
0
0
0
5
109
150
5
109
150
0
0
0
0
3
115
0
1
177
128
10
170
187
226
111
164
227
99
200
229
76
16
255
74
83
255
74
83
0
0
0
6
23
240
6
23
240
0
0
0
0
3
115
0
1
177
128
10
170
187
228
87
236
226
111
164
229
198
34
255
205
117
255
205
117
0
0
0
6
173
74
6
173
74
0
0
0
0
3
115
0
1
177
128
10
170
187
225
1
110
227
221
218
230
186
70
0
15
188
0
15
188
0
0
0
7
39
205
7
39
205
0
0
0
0
3
115
0
1
177
128
10
170
187
225
245
146
228
209
254
228
209
254
255
242
166
255
242
166
0
0
0
7
130
138
7
130
138
0
0
0
0
3
115
0
1
177
128
10
170
187
226
233
182
227
221
218
229
76
16
255
121
137
255
121
137
0
0
0
7
185
195
7
185
195
0
0
0
0
3
115
0
1
177
128
10
170
187
225
123
128
228
87
236
228
209
254
254
234
245
254
234
245
0
0
0
7
203
20
7
203
20
0
0
0
0
3
115
0
1
177
128
10
170
187
225
1
110
227
99
200
227
99
200
254
123
219
254
123
219
0
0
0
7
181
148
7
181
148
0
0
0
0
3
115
0
1
177
128
10
170
187
226
111
164
226
111
164
226
233
182
254
77
32
254
77
32
0
0
0
7
121
221
7
121
221
0
0
0
0
3
115
0
1
177
128
10
170
187
226
233
182
226
111
164
227
99
200
254
135
199
254
135
199
0
0
0
7
25
250
7
25
250
0
0
0
0
3
115
0
1
177
128
10
170
187
227
99
200
228
87
236
226
111
164
254
243
16
254
243
16
0
0
0
6
153
73
6
153
73
0
0
0
0
3
115
0
1
177
128
10
170
187
228
87
236
225
1
110
227
221
218
255
29
6
255
29
6
0
0
0
5
252
76
5
252
76
0
0
0
0
3
115
0
1
177
128
10
170
187
227
99
200
225
245
146
228
209
254
255
47
37
255
47
37
0
0
0
5
72
98
5
72
98
0
0
0
0
3
115
0
1
177
128
10
170
187
226
233
182
226
233
182
227
221
218
255
179
59
255
179
59
0
0
0
4
131
129
4
131
129
0
0
0
0
3
115
0
1
177
128
10
170
187
229
76
16
225
123
128
228
87
236
0
129
56
0
129
56
0
0
0
3
179
233
3
179
233
0
0
0
0
3
115
0
1
177
128
10
170
187
226
233
182
225
1
110
227
99
200
1
0
137
1
0
137
0
0
0
2
223
218
2
223
218
0
0
0
0
3
115
0
1
177
128
10
170
187
226
233
182
226
111
164
226
111
164
1
65
221
1
65
221
0
0
0
2
13
71
2
13
71
0
0
0
0
3
115
0
1
177
128
10
170
187
228
87
236
226
233
182
226
111
164
1
159
83
1
159
83
0
0
0
1
65
159
1
65
159
0
0
0
0
3
115
0
1
177
128
10
170
187
230
64
52
227
99
200
228
87
236
1
216
18
1
216
18
0
0
0
0
129
150
0
129
150
0
0
0
0
3
115
0
1
177
128
10
170
187
229
198
34
228
87
236
225
1
110
1
124
10
1
124
10
0
0
0
255
208
252
255
208
252
0
0
0
0
3
115
0
1
177
128
10
170
187
229
76
16
227
99
200
225
245
146
0
200
192
0
200
192
0
0
0
255
50
172
255
50
172
0
0
0
0
3
115
0
1
177
128
10
170
187
226
233
182
226
233
182
226
233
182
0
138
73
0
138
73
0
0
0
254
168
126
254
168
126
0
0
0
0
3
115
0
1
177
128
10
170
187
227
99
200
229
76
16
225
123
128
1
21
11
1
21
11
0
0
0
254
51
78
254
51
78
0
0
0
0
3
115
0
1
177
129
10
170
187
228
87
236
226
233
182
225
1
110
1
194
35
1
194
35
0
0
0
253
211
14
253
211
14
0
0
0
0
3
115
0
1
177
129
10
170
187
225
245
146
226
233
182
226
111
164
1
200
207
1
200
207
0
0
0
253
134
235
253
134
235
0
0
0
0
3
115
0
1
177
129
10
170
187
224
13
74
228
87
236
226
233
182
1
79
177
1
79
177
0
0
0
253
77
111
253
77
111
0
0
0
0
3
115
0
1
177
129
10
170
187
219
72
150
230
64
52
227
99
200
0
236
131
0
236
131
0
0
0
253
36
183
253
36
183
0
0
0
0
3
115
0
1
177
129
10
170
187
217
96
78
229
198
34
228
87
236
0
97
70
0
97
70
0
0
0
253
10
163
253
10
163
0
0
0
0
3
115
0
1
177
129
10
170
187
209
191
46
229
76
16
227
99
200
254
240
174
254
240
174
0
0
0
252
253
8
252
253
8
0
0
0
0
3
115
0
1
177
129
10
170
187
215
120
6
226
233
182
226
233
182
252
142
206
252
142
206
0
0
0
252
249
227
252
249
227
0
0
0
0
3
115
0
1
177
129
10
170
187
235
4
232
227
99
200
229
76
16
249
202
58
249
202
58
0
0
0
252
255
117
252
255
117
0
0
0
0
3
115
0
1
177
129
10
170
187
11
113
176
228
87
236
226
233
182
246
222
18
246
222
18
0
0
0
253
12
95
253
12
95
0
0
0
0
3
115
0
1
177
129
10
170
187
59
32
184
225
245
146
226
233
182
244
21
50
244
21
50
0
0
0
253
31
170
253
31
170
0
0
0
0
3
115
0
1
177
129
10
170
187
80
27
208
224
13
74
228
87
236
244
32
164
244
32
164
0
0
0
253
56
191
253
56
191
0
0
0
0
3
115
0
1
177
129
10
170
187
49
151
80
219
72
150
230
64
52
252
123
187
252
123
187
0
0
0
253
87
91
253
87
91
0
0
0
0
3
115
0
1
177
129
10
170
187
240
67
174
217
96
78
229
198
34
17
115
125
17
115
125
0
0
0
253
123
114
253
123
114
0
0
0
0
3
115
0
1
177
129
10
170
187
214
131
226
209
191
46
229
76
16
49
63
146
49
63
146
0
0
0
253
165
16
253
165
16
0
0
0
0
3
115
0
1
177
129
10
170
187
220
182
204
215
120
6
226
233
182
80
114
30
80
114
30
0
0
0
253
212
55
253
212
55
0
0
0
0
3
115
0
1
177
129
10
170
187
225
1
110
235
4
232
227
99
200
92
116
74
92
116
74
0
0
0
254
8
198
254
8
198
0
0
0
0
3
115
0
1
177
129
10
170
187
223
25
38
11
113
176
228
87
236
73
181
102
73
181
102
0
0
0
254
66
92
254
66
92
0
0
0
0
3
115
0
1
177
129
10
170
187
225
1
110
59
32
184
225
245
146
32
150
190
32
150
190
0
0
0
254
128
69
254
128
69
0
0
0
0
3
115
0
1
177
129
10
170
187
226
111
164
80
27
208
224
13
74
244
9
192
244
9
192
0
0
0
254
193
122
254
193
122
0
0
0
0
3
115
0
1
177
129
10
170
187
224
13
74
49
151
80
219
72
150
206
42
179
206
42
179
0
0
0
255
4
167
255
4
167
0
0
0
0
3
115
0
1
177
129
10
170
187
225
1
110
240
67
174
217
96
78
178
143
249
178
143
249
0
0
0
255
72
58
255
72
58
0
0
0
0
3
115
0
1
177
129
10
170
187
224
13
74
214
131
226
209
191
46
171
60
146
171
60
146
0
0
0
255
138
154
255
138
154
0
0
0
0
3
115
0
1
177
129
10
170
187
224
13
74
220
182
204
215
120
6
191
9
90
191
9
90
0
0
0
255
202
99
255
202
99
0
0
0
0
3
115
0
1
177
129
10
170
187
225
1
110
225
1
110
235
4
232
224
166
213
224
166
213
0
0
0
0
6
198
0
6
198
0
0
0
0
3
115
0
1
177
129
10
170
187
224
135
92
223
25
38
11
113
176
249
114
247
249
114
247
0
0
0
0
63
248
0
63
248
0
0
0
0
3
115
0
1
177
129
10
170
187
222
37
2
225
1
110
59
32
184
1
166
245
1
166
245
0
0
0
0
119
170
0
119
170
0
0
0
0
3
120
0
1
177
193
10
170
187
225
1
110
226
111
164
80
27
208
1
79
178
1
79
178
0
0
0
0
177
126
0
177
126
0
0
0
0
3
120
0
1
177
129
10
170
187
225
123
128
224
13
74
49
151
80
0
28
157
0
28
157
0
0
0
0
243
63
0
243
63
0
0
0
0
3
120
0
1
177
129
10
170
187
224
135
92
225
1
110
240
67
174
255
102
240
255
102
240
0
0
0
1
68
241
1
68
241
0
0
0
0
3
120
0
1
177
129
10
170
187
224
13
74
224
13
74
214
131
226
254
253
20
254
253
20
0
0
0
1
176
98
1
176
98
0
0
0
0
3
120
0
1
177
129
10
170
187
223
25
38
224
13
74
220
182
204
255
103
227
255
103
227
0
0
0
2
64
86
2
64
86
0
0
0
0
3
120
0
1
177
129
10
170
187
222
37
2
225
1
110
225
1
110
0
103
121
0
103
121
0
0
0
2
255
57
2
255
57
0
0
0
0
3
120
0
1
177
129
10
170
187
224
135
92
224
135
92
223
25
38
0
213
159
0
213
159
0
0
0
3
245
118
3
245
118
0
0
0
0
3
120
0
1
177
129
10
170
187
224
135
92
222
37
2
225
1
110
0
74
221
0
74
221
0
0
0
5
39
161
5
39
161
0
0
0
0
3
120
0
1
177
129
10
170
187
222
159
20
225
1
110
226
111
164
255
135
92
255
135
92
0
0
0
6
148
196
6
148
196
0
0
0
0
3
120
0
1
177
129
10
170
187
225
1
110
225
123
128
224
13
74
255
53
88
255
53
88
0
0
0
8
53
15
8
53
15
0
0
0
0
3
120
0
1
177
129
10
170
187
224
135
92
224
135
92
225
1
110
255
40
242
255
40
242
0
0
0
9
249
75
9
249
75
0
0
0
0
3
120
0
1
177
129
10
170
187
224
13
74
224
13
74
224
13
74
255
2
83
255
2
83
0
0
0
11
203
48
11
203
48
0
0
0
0
3
120
0
1
177
129
10
170
187
224
135
92
223
25
38
224
13
74
254
253
20
254
253
20
0
0
0
13
142
185
13
142
185
0
0
0
0
3
120
0
1
177
129
10
170
187
222
159
20
222
37
2
225
1
110
255
141
143
255
141
143
0
0
0
15
36
95
15
36
95
0
0
0
0
3
120
0
1
177
129
10
170
187
222
159
20
224
135
92
224
135
92
0
122
18
0
122
18
0
0
0
16
107
227
16
107
227
0
0
0
0
3
120
0
1
177
129
10
170
187
222
159
20
224
135
92
222
37
2
1
5
78
1
5
78
0
0
0
17
71
91
17
71
91
0
0
0
0
3
120
0
1
177
129
10
170
187
222
159
20
222
159
20
225
1
110
0
195
7
0
195
7
0
0
0
17
157
253
17
157
253
0
0
0
0
3
120
0
1
177
129
10
170
187
222
159
20
225
1
110
225
123
128
255
244
20
255
244
20
0
0
0
17
94
94
17
94
94
0
0
0
0
3
120
0
1
177
129
10
170
187
222
159
20
224
135
92
224
135
92
255
42
219
255
42
219
0
0
0
16
127
194
16
127
194
0
0
0
0
3
120
0
1
177
129
10
170
187
222
159
20
224
13
74
224
13
74
254
163
233
254
163
233
0
0
0
15
2
137
15
2
137
0
0
0
0
3
120
0
1
177
129
10
170
187
222
159
20
224
135
92
223
25
38
254
85
181
254
85
181
0
0
0
12
239
180
12
239
180
0
0
0
0
3
120
0
1
177
129
10
170
187
222
159
20
222
159
20
222
37
2
254
80
242
254
80
242
0
0
0
10
87
200
10
87
200
0
0
0
0
3
120
0
1
177
129
10
170
187
222
159
20
222
159
20
224
135
92
254
144
215
254
144
215
0
0
0
7
81
98
7
81
98
0
0
0
0
3
120
0
1
177
129
10
170
187
222
159
20
222
159
20
224
135
92
254
249
190
254
249
190
0
0
0
3
247
189
3
247
189
0
0
0
0
3
120
0
1
177
129
10
170
187
222
159
20
222
159
20
222
159
20
255
117
184
255
117
184
0
0
0
0
105
82
0
105
82
0
0
0
0
3
120
0
1
177
129
10
170
187
222
159
20
222
159
20
225
1
110
255
212
156
255
212
156
0
0
0
252
198
186
252
198
186
0
0
0
0
3
120
0
1
177
129
10
170
187
222
159
20
222
159
20
224
135
92
255
250
72
255
250
72
0
0
0
249
49
175
249
49
175
0
0
0
0
3
120
0
1
177
129
10
170
187
222
159
20
222
159
20
224
13
74
0
0
0
0
0
0
0
0
0
245
204
2
245
204
2
0
0
0
0
3
120
0
1
177
129
10
170
187
222
159
20
222
159
20
224
135
92
0
0
0
0
0
0
0
0
0
242
182
105
242
182
105
0
0
0
0
3
120
0
1
177
129
10
170
187
222
159
20
222
159
20
222
159
20
0
0
0
0
0
0
0
0
0
240
14
247
240
14
247
0
0
0
0
3
120
0
1
177
129
10
170
187
222
159
20
222
159
20
222
159
20
0
0
0
0
0
0
0
0
0
237
239
81
237
239
81
0
0
0
0
3
120
0
1
177
129
10
170
187
222
159
20
222
159
20
222
159
20
0
0
0
0
0
0
0
0
0
236
106
197
236
106
197
0
0
0
0
3
120
0
1
177
129
10
170
187
222
159
20
222
159
20
222
159
20
0
0
0
0
0
0
0
0
0
235
140
121
235
140
121
0
0
0
0
3
120
0
1
177
129
10
170
187
222
159
20
222
159
20
222
159
20
0
0
0
0
0
0
0
0
0
235
86
41
235
86
41
0
0
0
0
3
120
0
1
177
129
10
170
187
222
159
20
222
159
20
222
159
20
0
0
0
0
0
0
0
0
0
235
191
158
235
191
158
0
0
0
0
3
120
0
1
177
129
10
170
187
222
159
20
222
159
20
222
159
20
0
0
0
0
0
0
0
0
0
236
183
48
236
183
48
0
0
0
0
3
120
0
1
177
129
10
170
187
222
159
20
222
159
20
222
159
20
0
0
0
0
0
0
0
0
0
238
35
73
238
35
73
0
0
0
0
3
120
0
1
177
129
10
170
187
222
159
20
222
159
20
222
159
20
0
0
0
0
0
0
0
0
0
239
228
203
239
228
203
0
0
0
0
3
120
0
1
177
129
10
170
187
222
159
20
222
159
20
222
159
20
0
0
0
0
0
0
0
0
0
241
218
5
241
218
5
0
0
0
0
3
120
0
1
177
129
10
170
187
222
159
20
222
159
20
222
159
20
0
0
0
0
0
0
0
0
0
243
225
202
243
225
202
0
0
0
0
3
120
0
1
177
129
10
170
187
222
159
20
222
159
20
222
159
20
0
0
0
0
0
0
0
0
0
245
222
77
245
222
77
0
0
0
0
3
120
0
1
177
129
10
170
187
222
159
20
222
159
20
222
159
20
0
0
0
0
0
0
0
0
0
247
183
78
247
183
78
0
0
0
0
3
120
0
1
177
129
10
170
187
222
159
20
222
159
20
222
159
20
0
0
0
0
0
0
0
0
0
249
91
112
249
91
112
0
0
0
0
3
120
0
1
177
129
10
170
187
222
159
20
222
159
20
222
159
20
0
0
0
0
0
0
0
0
0
250
192
150
250
192
150
0
0
0
0
3
120
0
1
177
129
10
170
187
222
159
20
222
159
20
222
159
20
0
0
0
0
0
0
0
0
0
251
227
112
251
227
112
0
0
0
0
3
120
0
1
177
129
10
170
187
222
159
20
222
159
20
222
159
20
0
0
0
0
0
0
0
0
0
252
198
85
252
198
85
0
0
0
0
3
120
0
1
177
129
10
170
187
222
159
20
222
159
20
222
159
20
0
0
0
0
0
0
0
0
0
253
111
191
253
111
191
0
0
0
0
3
120
0
1
177
129
10
170
187
222
159
20
222
159
20
222
159
20
0
0
0
0
0
0
0
0
0
253
232
168
253
232
168
0
0
0
0
3
120
0
1
177
129
10
170
187
222
159
20
222
159
20
222
159
20
0
0
0
0
0
0
0
0
0
254
59
14
254
59
14
0
0
0
0
3
120
0
1
177
129
10
170
187
222
159
20
222
159
20
222
159
20
0
0
0
0
0
0
0
0
0
254
112
185
254
112
185
0
0
0
0
3
120
0
1
177
129
10
170
187
224
135
92
222
159
20
222
159
20
0
0
0
0
0
0
0
0
0
254
146
99
254
146
99
0
0
0
0
3
120
0
1
177
129
10
170
187
224
13
74
222
159
20
222
159
20
255
254
23
255
254
23
0
0
0
254
167
75
254
167
75
0
0
0
0
3
120
0
1
177
129
10
170
187
223
25
38
222
159
20
222
159
20
255
250
71
255
250
71
0
0
0
254
181
5
254
181
5
0
0
0
0
3
120
0
1
177
129
10
170
187
224
13
74
222
159
20
222
159
20
0
22
104
0
22
104
0
0
0
254
191
155
254
191
155
0
0
0
0
3
120
0
1
177
129
10
170
187
223
25
38
222
159
20
222
159
20
0
138
193
0
138
193
0
0
0
254
201
189
254
201
189
0
0
0
0
3
120
0
1
177
129
10
170
187
222
37
2
222
159
20
222
159
20
1
48
56
1
48
56
0
0
0
254
213
20
254
213
20
0
0
0
0
3
120
0
1
177
129
10
170
187
223
147
56
222
159
20
222
159
20
1
137
221
1
137
221
0
0
0
254
226
126
254
226
126
0
0
0
0
3
120
0
1
177
129
10
170
187
224
135
92
222
159
20
222
159
20
1
121
45
1
121
45
0
0
0
254
242
78
254
242
78
0
0
0
0
3
120
0
1
177
129
10
170
187
222
159
20
224
135
92
222
159
20
1
51
21
1
51
21
0
0
0
255
4
120
255
4
120
0
0
0
0
3
120
0
1
177
129
10
170
187
224
13
74
224
13
74
222
159
20
0
192
165
0
192
165
0
0
0
255
24
180
255
24
180
0
0
0
0
3
120
0
1
177
129
10
170
187
224
13
74
223
25
38
222
159
20
0
40
137
0
40
137
0
0
0
255
46
137
255
46
137
0
0
0
0
3
120
0
1
177
129
10
170
187
222
37
2
224
13
74
222
159
20
255
158
64
255
158
64
0
0
0
255
69
103
255
69
103
0
0
0
0
3
120
0
1
177
129
10
170
187
223
25
38
223
25
38
222
159
20
255
80
134
255
80
134
0
0
0
255
92
177
255
92
177
0
0
0
0
3
120
0
1
177
129
10
170
187
224
13
74
222
37
2
222
159
20
255
87
51
255
87
51
0
0
0
255
115
196
255
115
196
0
0
0
0
3
120
0
1
177
129
10
170
187
221
170
240
223
147
56
222
159
20
255
157
197
255
157
197
0
0
0
255
138
13
255
138
13
0
0
0
0
3
120
0
1
177
129
10
170
187
221
170
240
224
135
92
222
159
20
255
200
176
255
200
176
0
0
0
255
159
8
255
159
8
0
0
0
0
3
120
0
1
177
129
10
170
187
221
170
240
222
159
20
224
135
92
255
163
126
255
163
126
0
0
0
255
178
92
255
178
92
0
0
0
0
3
120
0
1
177
129
10
170
187
219
72
150
224
13
74
224
13
74
255
107
58
255
107
58
0
0
0
255
195
208
255
195
208
0
0
0
0
3
120
0
1
177
129
10
170
187
221
170
240
224
13
74
223
25
38
255
56
175
255
56
175
0
0
0
255
211
95
255
211
95
0
0
0
0
3
120
0
1
177
129
10
170
187
221
170
240
222
37
2
224
13
74
254
203
3
254
203
3
0
0
0
255
225
46
255
225
46
0
0
0
0
3
120
0
1
177
129
10
170
187
220
60
186
223
25
38
223
25
38
254
48
254
254
48
254
0
0
0
255
237
142
255
237
142
0
0
0
0
3
120
0
1
177
129
10
170
187
221
48
222
224
13
74
222
37
2
253
222
5
253
222
5
0
0
0
255
248
235
255
248
235
0
0
0
0
3
120
0
1
177
129
10
170
187
221
170
240
221
170
240
223
147
56
253
248
185
253
248
185
0
0
0
0
3
196
0
3
196
0
0
0
0
3
120
0
1
177
129
10
170
187
220
182
204
221
170
240
224
135
92
254
50
229
254
50
229
0
0
0
0
14
158
0
14
158
0
0
0
0
3
120
0
1
177
129
10
170
187
224
135
92
221
170
240
222
159
20
254
105
66
254
105
66
0
0
0
0
25
241
0
25
241
0
0
0
0
3
120
0
1
177
129
10
170
187
225
1
110
219
72
150
224
13
74
254
216
214
254
216
214
0
0
0
0
38
24
0
38
24
0
0
0
0
3
120
0
1
177
129
10
170
187
223
147
56
221
170
240
224
13
74
255
146
84
255
146
84
0
0
0
0
51
76
0
51
76
0
0
0
0
3
120
0
1
177
129
10
170
187
227
99
200
221
170
240
222
37
2
0
103
244
0
103
244
0
0
0
0
65
146
0
65
146
0
0
0
0
3
120
0
1
177
129
10
170
187
228
87
236
220
60
186
223
25
38
1
82
142
1
82
142
0
0
0
0
80
188
0
80
188
0
0
0
0
3
120
0
1
177
129
10
170
187
228
87
236
221
48
222
224
13
74
2
79
72
2
79
72
0
0
0
0
96
105
0
96
105
0
0
0
0
3
120
0
1
177
129
10
170
187
229
198
34
221
170
240
221
170
240
3
69
206
3
69
206
0
0
0
0
112
1
0
112
1
0
0
0
0
3
120
0
1
177
129
10
170
187
232
40
124
220
182
204
221
170
240
4
70
88
4
70
88
0
0
0
0
126
201
0
126
201
0
0
0
0
3
120
0
1
177
129
10
170
187
230
186
70
224
135
92
221
170
240
5
88
133
5
88
133
0
0
0
0
139
226
0
139
226
0
0
0
0
3
120
0
1
177
129
10
170
187
232
162
142
225
1
110
219
72
150
6
49
123
6
49
123
0
0
0
0
150
92
0
150
92
0
0
0
0
3
120
0
1
177
129
10
170
187
232
162
142
223
147
56
221
170
240
6
146
194
6
146
194
0
0
0
0
157
67
0
157
67
0
0
0
0
3
120
0
1
177
129
10
170
187
231
174
106
227
99
200
221
170
240
6
178
59
6
178
59
0
0
0
0
159
174
0
159
174
0
0
0
0
3
120
0
1
177
129
10
170
187
233
28
160
228
87
236
220
60
186
6
195
101
6
195
101
0
0
0
0
156
202
0
156
202
0
0
0
0
3
120
0
1
177
129
10
170
187
231
174
106
228
87
236
221
48
222
6
135
80
6
135
80
0
0
0
0
147
236
0
147
236
0
0
0
0
3
120
0
1
177
129
10
170
187
231
174
106
229
198
34
221
170
240
5
210
152
5
210
152
0
0
0
0
132
166
0
132
166
0
0
0
0
3
120
0
1
177
129
10
170
187
232
40
124
232
40
124
220
182
204
4
206
62
4
206
62
0
0
0
0
110
204
0
110
204
0
0
0
0
3
120
0
1
177
129
10
170
187
231
52
88
230
186
70
224
135
92
3
144
49
3
144
49
0
0
0
0
82
139
0
82
139
0
0
0
0
3
120
0
1
177
129
10
170
187
230
186
70
232
162
142
225
1
110
2
47
206
2
47
206
0
0
0
0
48
121
0
48
121
0
0
0
0
3
120
0
1
177
129
10
170
187
230
186
70
232
162
142
223
147
56
0
254
39
0
254
39
0
0
0
0
9
161
0
9
161
0
0
0
0
3
120
0
1
177
129
10
170
187
229
198
34
231
174
106
227
99
200
0
20
129
0
20
129
0
0
0
255
223
144
255
223
144
0
0
0
0
3
120
0
1
177
129
10
170
187
228
87
236
233
28
160
228
87
236
255
69
143
255
69
143
0
0
0
255
180
86
255
180
86
0
0
0
0
3
120
0
1
177
129
10
170
187
230
64
52
231
174
106
228
87
236
254
176
78
254
176
78
0
0
0
255
138
129
255
138
129
0
0
0
0
3
120
0
1
177
129
10
170
187
229
76
16
231
174
106
229
198
34
254
113
215
254
113
215
0
0
0
255
101
17
255
101
17
0
0
0
0
3
120
0
1
177
129
10
170
187
228
209
254
232
40
124
232
40
124
254
54
183
254
54
183
0
0
0
255
71
87
255
71
87
0
0
0
0
3
120
0
1
177
129
10
170
187
229
198
34
231
52
88
230
186
70
253
222
250
253
222
250
0
0
0
255
52
211
255
52
211
0
0
0
0
3
120
0
1
177
129
10
170
187
230
64
52
230
186
70
232
162
142
253
205
85
253
205
85
0
0
0
255
49
4
255
49
4
0
0
0
0
3
120
0
1
177
129
10
170
187
228
87
236
230
186
70
232
162
142
254
37
18
254
37
18
0
0
0
255
63
45
255
63
45
0
0
0
0
3
120
0
1
177
129
10
170
187
229
198
34
229
198
34
231
174
106
254
135
199
254
135
199
0
0
0
255
98
31
255
98
31
0
0
0
0
3
120
0
1
177
129
10
170
187
229
76
16
228
87
236
233
28
160
254
214
238
254
214
238
0
0
0
255
156
0
255
156
0
0
0
0
0
3
120
0
1
177
129
10
170
187
227
99
200
230
64
52
231
174
106
255
62
103
255
62
103
0
0
0
255
238
23
255
238
23
0
0
0
0
3
120
0
1
177
129
10
170
187
227
221
218
229
76
16
231
174
106
255
147
72
255
147
72
0
0
0
0
88
160
0
88
160
0
0
0
0
3
120
0
1
177
129
10
170
187
226
111
164
228
209
254
232
40
124
255
138
57
255
138
57
0
0
0
0
218
179
0
218
179
0
0
0
0
3
120
0
1
177
129
10
170
187
226
233
182
229
198
34
231
52
88
255
47
37
255
47
37
0
0
0
1
114
53
1
114
53
0
0
0
0
3
120
0
1
177
129
10
170
187
228
209
254
230
64
52
230
186
70
254
176
201
254
176
201
0
0
0
2
27
217
2
27
217
0
0
0
0
3
120
0
1
177
129
10
170
187
228
87
236
228
87
236
230
186
70
254
28
247
254
28
247
0
0
0
2
211
55
2
211
55
0
0
0
0
3
120
0
1
177
129
10
170
187
226
111
164
229
198
34
229
198
34
253
156
178
253
156
178
0
0
0
3
146
243
3
146
243
0
0
0
0
3
120
0
1
177
129
10
170
187
227
221
218
229
76
16
228
87
236
253
149
139
253
149
139
0
0
0
4
84
238
4
84
238
0
0
0
0
3
120
0
1
177
129
10
170
187
226
233
182
227
99
200
230
64
52
254
41
92
254
41
92
0
0
0
5
18
139
5
18
139
0
0
0
0
3
120
0
1
177
129
10
170
187
225
1
110
227
221
218
229
76
16
254
243
138
254
243
138
0
0
0
5
196
254
5
196
254
0
0
0
0
3
120
0
1
177
129
10
170
187
227
99
200
226
111
164
228
209
254
255
146
205
255
146
205
0
0
0
6
101
159
6
101
159
0
0
0
0
3
120
0
1
177
129
10
170
187
226
111
164
226
233
182
229
198
34
255
246
241
255
246
241
0
0
0
6
238
59
6
238
59
0
0
0
0
3
120
0
1
177
129
10
170
187
224
135
92
228
209
254
230
64
52
0
15
66
0
15
66
0
0
0
7
89
103
7
89
103
0
0
0
0
3
120
0
1
177
129
10
170
187
227
99
200
228
87
236
228
87
236
255
191
38
255
191
38
0
0
0
7
162
198
7
162
198
0
0
0
0
3
120
0
1
177
129
10
170
187
226
111
164
226
111
164
229
198
34
255
48
26
255
48
26
0
0
0
7
199
64
7
199
64
0
0
0
0
3
120
0
1
177
129
10
170
187
224
135
92
227
221
218
229
76
16
254
172
249
254
172
249
0
0
0
7
197
46
7
197
46
0
0
0
0
3
120
0
1
177
129
10
170
187
225
245
146
226
233
182
227
99
200
254
89
12
254
89
12
0
0
0
7
156
104
7
156
104
0
0
0
0
3
120
0
1
177
129
10
170
187
226
233
182
225
1
110
227
221
218
254
94
74
254
94
74
0
0
0
7
78
66
7
78
66
0
0
0
0
3
120
0
1
177
129
10
170
187
226
111
164
227
99
200
226
111
164
254
192
11
254
192
11
0
0
0
6
221
121
6
221
121
0
0
0
0
3
120
0
1
177
129
10
170
187
226
233
182
226
111
164
226
233
182
255
18
15
255
18
15
0
0
0
6
78
2
6
78
2
0
0
0
0
3
120
0
1
177
129
10
170
187
227
99
200
224
135
92
228
209
254
255
30
239
255
30
239
0
0
0
5
164
216
5
164
216
0
0
0
0
3
120
0
1
177
129
10
170
187
226
233
182
227
99
200
228
87
236
255
95
200
255
95
200
0
0
0
4
231
173
4
231
173
0
0
0
0
3
120
0
1
177
129
10
170
187
228
87
236
226
111
164
226
111
164
0
28
156
0
28
156
0
0
0
4
28
167
4
28
167
0
0
0
0
3
120
0
1
177
129
10
170
187
227
221
218
224
135
92
227
221
218
0
206
243
0
206
243
0
0
0
3
74
14
3
74
14
0
0
0
0
3
120
0
1
177
129
10
170
187
225
245
146
225
245
146
226
233
182
1
32
3
1
32
3
0
0
0
2
118
6
2
118
6
0
0
0
0
3
120
0
1
177
129
10
170
187
227
221
218
226
233
182
225
1
110
1
108
200
1
108
200
0
0
0
1
166
70
1
166
70
0
0
0
0
3
120
0
1
177
129
10
170
187
229
76
16
226
111
164
227
99
200
1
202
184
1
202
184
0
0
0
0
223
228
0
223
228
0
0
0
0
3
120
0
1
177
129
10
170
187
229
198
34
226
233
182
226
111
164
1
190
82
1
190
82
0
0
0
0
39
40
0
39
40
0
0
0
0
3
120
0
1
177
129
10
170
187
228
209
254
227
99
200
224
135
92
1
32
3
1
32
3
0
0
0
255
127
103
255
127
103
0
0
0
0
3
120
0
1
177
129
10
170
187
228
87
236
226
233
182
227
99
200
0
143
135
0
143
135
0
0
0
254
234
253
254
234
253
0
0
0
0
3
120
0
1
177
129
10
170
187
229
76
16
228
87
236
226
111
164
0
186
113
0
186
113
0
0
0
254
107
65
254
107
65
0
0
0
0
3
120
0
1
177
161
10
170
187
227
99
200
227
221
218
224
135
92
1
90
169
1
90
169
0
0
0
254
0
152
254
0
152
0
0
0
0
3
120
0
1
177
129
10
170
187
225
123
128
225
245
146
225
245
146
1
123
21
1
123
21
0
0
0
253
170
141
253
170
141
0
0
0
0
3
120
0
1
177
129
10
170
187
221
170
240
227
221
218
226
233
182
0
249
220
0
249
220
0
0
0
253
103
245
253
103
245
0
0
0
0
3
120
0
1
177
129
10
170
187
219
72
150
229
76
16
226
111
164
0
163
19
0
163
19
0
0
0
253
55
29
253
55
29
0
0
0
0
3
120
0
1
177
129
10
170
187
212
155
154
229
198
34
226
233
182
0
73
233
0
73
233
0
0
0
253
21
252
253
21
252
0
0
0
0
3
120
0
1
177
129
10
170
187
209
191
46
228
209
254
227
99
200
254
188
180
254
188
180
0
0
0
253
2
103
253
2
103
0
0
0
0
3
120
0
1
177
129
10
170
187
224
135
92
228
87
236
226
233
182
251
217
155
251
217
155
0
0
0
252
250
68
252
250
68
0
0
0
0
3
120
0
1
177
129
10
170
187
249
83
4
229
76
16
228
87
236
248
147
84
248
147
84
0
0
0
252
251
171
252
251
171
0
0
0
0
3
120
0
1
177
129
10
170
187
35
195
70
227
99
200
227
221
218
245
100
106
245
100
106
0
0
0
253
5
12
253
5
12
0
0
0
0
3
120
0
1
177
129
10
170
187
74
98
248
225
123
128
225
245
146
243
110
200
243
110
200
0
0
0
253
21
56
253
21
56
0
0
0
0
3
120
0
1
177
129
10
170
187
72
244
194
221
170
240
227
221
218
246
231
155
246
231
155
0
0
0
253
43
105
253
43
105
0
0
0
0
3
120
0
1
177
129
10
170
187
16
54
100
219
72
150
229
76
16
5
79
241
5
79
241
0
0
0
253
71
46
253
71
46
0
0
0
0
3
120
0
1
177
129
10
170
187
221
48
222
212
155
154
229
198
34
32
119
70
32
119
70
0
0
0
253
104
90
253
104
90
0
0
0
0
3
120
0
1
177
129
10
170
187
215
120
6
209
191
46
228
209
254
66
6
114
66
6
114
0
0
0
253
142
230
253
142
230
0
0
0
0
3
120
0
1
177
129
10
170
187
224
135
92
224
135
92
228
87
236
89
244
96
89
244
96
0
0
0
253
186
200
253
186
200
0
0
0
0
3
120
0
1
177
129
10
170
187
224
13
74
249
83
4
229
76
16
86
228
238
86
228
238
0
0
0
253
235
222
253
235
222
0
0
0
0
3
120
0
1
177
129
10
170
187
224
135
92
35
195
70
227
99
200
54
189
196
54
189
196
0
0
0
254
33
197
254
33
197
0
0
0
0
3
120
0
1
177
129
10
170
187
225
245
146
74
98
248
225
123
128
9
200
89
9
200
89
0
0
0
254
91
211
254
91
211
0
0
0
0
3
120
0
1
177
129
10
170
187
225
123
128
72
244
194
221
170
240
224
23
77
224
23
77
0
0
0
254
153
12
254
153
12
0
0
0
0
3
120
0
1
177
129
10
170
187
223
147
56
16
54
100
219
72
150
190
162
213
190
162
213
0
0
0
254
216
46
254
216
46
0
0
0
0
3
120
0
1
177
129
10
170
187
223
25
38
221
48
222
212
155
154
171
150
177
171
150
177
0
0
0
255
23
206
255
23
206
0
0
0
0
3
120
0
1
177
129
10
170
187
224
135
92
215
120
6
209
191
46
178
16
47
178
16
47
0
0
0
255
86
148
255
86
148
0
0
0
0
3
120
0
1
177
129
10
170
187
224
135
92
224
135
92
224
135
92
207
164
91
207
164
91
0
0
0
255
147
136
255
147
136
0
0
0
0
3
120
0
1
177
129
10
170
187
224
135
92
224
13
74
249
83
4
239
40
113
239
40
113
0
0
0
255
206
118
255
206
118
0
0
0
0
3
120
0
1
177
129
10
170
187
223
25
38
224
135
92
35
195
70
255
78
36
255
78
36
0
0
0
0
8
102
0
8
102
0
0
0
0
3
120
0
1
177
129
10
170
187
224
13
74
225
245
146
74
98
248
1
230
96
1
230
96
0
0
0
0
68
19
0
68
19
0
0
0
0
3
115
0
1
177
129
10
170
187
226
233
182
225
123
128
72
244
194
0
161
166
0
161
166
0
0
0
0
134
52
0
134
52
0
0
0
0
3
115
0
1
177
129
10
170
187
225
123
128
223
147
56
16
54
100
255
187
85
255
187
85
0
0
0
0
213
179
0
213
179
0
0
0
0
3
115
0
1
177
129
10
170
187
223
147
56
223
25
38
221
48
222
255
31
227
255
31
227
0
0
0
1
59
106
1
59
106
0
0
0
0
3
115
0
1
177
129
10
170
187
223
147
56
224
135
92
215
120
6
255
18
15
255
18
15
0
0
0
1
193
145
1
193
145
0
0
0
0
3
115
0
1
177
129
10
170
187
222
37
2
224
135
92
224
135
92
255
231
175
255
231
175
0
0
0
2
114
163
2
114
163
0
0
0
0
3
115
0
1
177
129
10
170
187
223
147
56
224
135
92
224
13
74
0
193
152
0
193
152
0
0
0
3
87
228
3
87
228
0
0
0
0
3
115
0
1
177
129
10
170
187
224
135
92
223
25
38
224
135
92
0
166
106
0
166
106
0
0
0
4
119
168
4
119
168
0
0
0
0
3
115
0
1
177
129
10
170
187
223
147
56
224
13
74
225
245
146
255
223
147
255
223
147
0
0
0
5
211
130
5
211
130
0
0
0
0
3
115
0
1
177
129
10
170
187
225
1
110
226
233
182
225
123
128
255
79
23
255
79
23
0
0
0
7
102
201
7
102
201
0
0
0
0
3
115
0
1
177
129
10
170
187
224
135
92
225
123
128
223
147
56
255
47
158
255
47
158
0
0
0
9
37
159
9
37
159
0
0
0
0
3
115
0
1
177
129
10
170
187
224
13
74
223
147
56
223
25
38
255
25
53
255
25
53
0
0
0
10
252
227
10
252
227
0
0
0
0
3
115
0
1
177
129
10
170
187
223
147
56
223
147
56
224
135
92
254
240
174
254
240
174
0
0
0
12
210
252
12
210
252
0
0
0
0
3
115
0
1
177
129
10
170
187
223
147
56
222
37
2
224
135
92
255
49
14
255
49
14
0
0
0
14
137
176
14
137
176
0
0
0
0
3
115
0
1
177
129
10
170
187
222
159
20
223
147
56
224
135
92
0
5
63
0
5
63
0
0
0
16
0
172
16
0
172
0
0
0
0
3
115
0
1
177
129
10
170
187
222
159
20
224
135
92
223
25
38
0
214
148
0
214
148
0
0
0
17
24
126
17
24
126
0
0
0
0
3
115
0
1
177
129
10
170
187
222
159
20
223
147
56
224
13
74
0
252
186
0
252
186
0
0
0
17
181
134
17
181
134
0
0
0
0
3
115
0
1
177
129
10
170
187
222
159
20
225
1
110
226
233
182
0
99
47
0
99
47
0
0
0
17
194
144
17
194
144
0
0
0
0
3
115
0
1
177
129
10
170
187
222
159
20
224
135
92
225
123
128
255
136
203
255
136
203
0
0
0
17
50
146
17
50
146
0
0
0
0
3
115
0
1
177
129
10
170
187
222
159
20
224
13
74
223
147
56
254
223
254
254
223
254
0
0
0
16
1
144
16
1
144
0
0
0
0
3
115
0
1
177
129
10
170
187
222
159
20
223
147
56
223
147
56
254
116
58
254
116
58
0
0
0
14
52
137
14
52
137
0
0
0
0
3
115
0
1
177
129
10
170
187
222
159
20
223
147
56
222
37
2
254
73
80
254
73
80
0
0
0
11
216
166
11
216
166
0
0
0
0
3
115
0
1
177
129
10
170
187
222
159
20
222
159
20
223
147
56
254
106
177
254
106
177
0
0
0
9
1
233
9
1
233
0
0
0
0
3
115
0
1
177
129
10
170
187
222
159
20
222
159
20
224
135
92
254
193
122
254
193
122
0
0
0
5
201
165
5
201
165
0
0
0
0
3
115
0
1
177
129
10
170
187
222
159
20
222
159
20
223
147
56
255
55
187
255
55
187
0
0
0
2
77
16
2
77
16
0
0
0
0
3
115
0
1
177
129
10
170
187
222
159
20
222
159
20
225
1
110
255
171
154
255
171
154
0
0
0
254
172
7
254
172
7
0
0
0
0
3
115
0
1
177
129
10
170
187
222
159
20
222
159
20
224
135
92
255
237
226
255
237
226
0
0
0
251
7
249
251
7
249
0
0
0
0
3
115
0
1
177
129
10
170
187
222
159
20
222
159
20
224
13
74
255
255
12
255
255
12
0
0
0
247
130
231
247
130
231
0
0
0
0
3
115
0
1
177
129
10
170
187
222
159
20
222
159
20
223
147
56
0
0
0
0
0
0
0
0
0
244
62
79
244
62
79
0
0
0
0
3
115
0
1
177
129
10
170
187
222
159
20
222
159
20
223
147
56
0
0
0
0
0
0
0
0
0
241
89
203
241
89
203
0
0
0
0
3
115
0
1
177
129
10
170
187
222
159
20
222
159
20
222
159
20
0
0
0
0
0
0
0
0
0
238
241
115
238
241
115
0
0
0
0
3
115
0
1
177
129
10
170
187
222
159
20
222
159
20
222
159
20
0
0
0
0
0
0
0
0
0
237
27
236
237
27
236
0
0
0
0
3
115
0
1
177
129
10
170
187
222
159
20
222
159
20
222
159
20
0
0
0
0
0
0
0
0
0
235
232
150
235
232
150
0
0
0
0
3
115
0
1
177
129
10
170
187
222
159
20
222
159
20
222
159
20
0
0
0
0
0
0
0
0
0
235
93
236
235
93
236
0
0
0
0
3
115
0
1
177
129
10
170
187
222
159
20
222
159
20
222
159
20
0
0
0
0
0
0
0
0
0
235
120
156
235
120
156
0
0
0
0
3
115
0
1
177
129
10
170
187
222
159
20
222
159
20
222
159
20
0
0
0
0
0
0
0
0
0
236
43
138
236
43
138
0
0
0
0
3
115
0
1
177
129
10
170
187
222
159
20
222
159
20
222
159
20
0
0
0
0
0
0
0
0
0
237
96
198
237
96
198
0
0
0
0
3
115
0
1
177
129
10
170
187
222
159
20
222
159
20
222
159
20
0
0
0
0
0
0
0
0
0
238
251
149
238
251
149
0
0
0
0
3
115
0
1
177
129
10
170
187
222
159
20
222
159
20
222
159
20
0
0
0
0
0
0
0
0
0
240
219
33
240
219
33
0
0
0
0
3
115
0
1
177
129
10
170
187
222
159
20
222
159
20
222
159
20
0
0
0
0
0
0
0
0
0
242
221
149
242
221
149
0
0
0
0
3
115
0
1
177
129
10
170
187
222
159
20
222
159
20
222
159
20
0
0
0
0
0
0
0
0
0
244
227
34
244
227
34
0
0
0
0
3
115
0
1
177
129
10
170
187
222
159
20
222
159
20
222
159
20
0
0
0
0
0
0
0
0
0
246
208
128
246
208
128
0
0
0
0
3
115
0
1
177
129
10
170
187
222
159
20
222
159
20
222
159
20
0
0
0
0
0
0
0
0
0
248
144
200
248
144
200
0
0
0
0
3
115
0
1
177
129
10
